0.001,0.00131735846158444
0.002,0.00131276179491778
0.003,0.00130789846158444
0.004,0.00130289512825111
0.005,0.00129767846158444
0.006,0.00129226179491777
0.007,0.00128663846158444
0.008,0.00128094512825111
0.009,0.00127504512825111
0.01,0.00126901846158444
0.011,0.00126284179491777
0.012,0.00125646512825111
0.013,0.00125002179491778
0.014,0.00124350512825111
0.015,0.00123678512825111
0.016,0.00122998846158444
0.017,0.00122306512825111
0.018,0.00121606846158444
0.019,0.00120894512825111
0.02,0.0012017451282511
0.021,0.00119446846158444
0.022,0.00118713179491777
0.023,0.00117972846158444
0.024,0.00117225179491777
0.025,0.00116470846158444
0.026,0.00115716846158444
0.027,0.00114947846158444
0.028,0.00114179846158444
0.029,0.00113405179491778
0.03,0.00112623512825111
0.031,0.00111841512825111
0.032,0.00111045846158444
0.033,0.00110257512825111
0.034,0.00109461846158444
0.035,0.00108659846158444
0.036,0.00107850179491778
0.037,0.00107034179491777
0.038,0.00106218179491778
0.039,0.00105395179491777
0.04,0.00104572179491777
0.041,0.00103735512825111
0.042,0.00102898846158444
0.043,0.00102055512825111
0.044,0.00101205179491778
0.045,0.00100347846158444
0.046,0.000994838461584441
0.047,0.00098612846158444
0.048,0.000977418461584439
0.049,0.000968571794917777
0.05,0.000959725128251107
0.051,0.000950811794917776
0.052,0.000941828461584438
0.053,0.000932841794917776
0.054,0.000923721794917777
0.055,0.000914601794917771
0.056,0.000905481794917772
0.057,0.000896221794917774
0.058,0.000886965128251106
0.059,0.000877638461584439
0.06,0.000868311794917772
0.061,0.000858915128251105
0.062,0.000849451794917776
0.063,0.000839988461584441
0.064,0.000830525128251105
0.065,0.000820991794917777
0.066,0.000811391794917773
0.067,0.000801788461584438
0.068,0.000792051794917773
0.069,0.000782311794917777
0.07,0.000772575128251104
0.071,0.00076269846158444
0.072,0.000752825128251106
0.073,0.000742881794917773
0.074,0.00073286846158444
0.075,0.000722788461584439
0.076,0.000712638461584444
0.077,0.000702418461584443
0.078,0.000692131794917773
0.079,0.000681845128251111
0.08,0.000671421794917773
0.081,0.000660998461584442
0.082,0.000650438461584443
0.083,0.000639875128251105
0.084,0.000629315128251106
0.085,0.000618615128251107
0.086,0.000607848461584439
0.087,0.000597081794917772
0.088,0.000586315128251105
0.089,0.000575481794917776
0.09,0.00056457846158444
0.091,0.000553671794917773
0.092,0.000542768461584444
0.093,0.000531795128251109
0.094,0.000520821794917773
0.095,0.000509851794917776
0.096,0.00049887846158444
0.097,0.000487975128251105
0.098,0.000477001794917776
0.099,0.000466028461584441
0.1,0.000455125128251105
0.101,0.000444221794917776
0.102,0.000433318461584441
0.103,0.000422481794917773
0.104,0.000411715128251106
0.105,0.000401015128251107
0.106,0.000390318461584439
0.107,0.00037975846158444
0.108,0.000369265128251109
0.109,0.000358771794917772
0.11,0.000348485128251109
0.111,0.000338198461584439
0.112,0.000328118461584438
0.113,0.000318105128251105
0.114,0.000308231794917771
0.115,0.000298561794917775
0.116,0.00028895846158444
0.117,0.000279565128251111
0.118,0.000270305128251105
0.119,0.000261255128251106
0.12,0.000252408461584444
0.121,0.000243698461584442
0.122,0.000235195128251109
0.123,0.000226895128251106
0.124,0.000218805128251109
0.125,0.000210918461584442
0.126,0.000203235128251105
0.127,0.000195691794917775
0.128,0.000188421794917774
0.129,0.000181291794917773
0.13,0.000174365128251108
0.131,0.000167645128251105
0.132,0.000161128461584438
0.133,0.00015481846158444
0.134,0.000148715128251109
0.135,0.00014281846158444
0.136,0.000137058461584439
0.137,0.000131571794917775
0.138,0.000126221794917772
0.139,0.000121011794917776
0.14,0.000116071794917778
0.141,0.000111271794917772
0.142,0.000106608461584442
0.143,0.000102151794917773
0.144,9.78984615844412e-05
0.145,9.38551282511085e-05
0.146,8.99451282511057e-05
0.147,8.61717949177713e-05
0.148,8.26084615844434e-05
0.149,7.91784615844383e-05
0.15,7.59551282511085e-05
0.151,7.28684615844399e-05
0.152,6.99884615844395e-05
0.153,6.72451282511073e-05
0.154,6.4571794917775e-05
0.155,6.21017949177725e-05
0.156,5.97717949177767e-05
0.157,5.75751282511108e-05
0.158,5.55884615844443e-05
0.159,5.3665128251108e-05
0.16,5.18851282511097e-05
0.161,5.02384615844413e-05
0.162,4.87984615844411e-05
0.163,4.74251282511094e-05
0.164,4.62617949177771e-05
0.165,4.5161794917775e-05
0.166,4.42017949177725e-05
0.167,4.33784615844383e-05
0.168,4.26951282511108e-05
0.169,4.20784615844377e-05
0.17,4.159846158444e-05
0.171,4.12551282511106e-05
0.172,4.10484615844425e-05
0.173,4.09117949177742e-05
0.174,4.09117949177742e-05
0.175,4.10484615844425e-05
0.176,4.12551282511106e-05
0.177,4.15284615844402e-05
0.178,4.18717949177766e-05
0.179,4.23517949177744e-05
0.18,4.28984615844406e-05
0.181,4.35184615844379e-05
0.182,4.42017949177725e-05
0.183,4.49584615844382e-05
0.184,4.57817949177723e-05
0.185,4.66017949177752e-05
0.186,4.74951282511092e-05
0.187,4.85217949177732e-05
0.188,4.95517949177755e-05
0.189,5.05817949177778e-05
0.19,5.17451282511101e-05
0.191,5.29117949177736e-05
0.192,5.41484615844441e-05
0.193,5.53817949177762e-05
0.194,5.66851282511081e-05
0.195,5.80551282511085e-05
0.196,5.94951282511087e-05
0.197,6.09351282511089e-05
0.198,6.23751282511091e-05
0.199,6.38851282511092e-05
0.2,6.53951282511092e-05
0.201,6.69017949177779e-05
0.202,6.84784615844394e-05
0.203,7.00584615844393e-05
0.204,7.17017949177763e-05
0.205,7.32817949177762e-05
0.206,7.49251282511062e-05
0.207,7.65717949177745e-05
0.208,7.82184615844429e-05
0.209,7.98651282511113e-05
0.21,8.15084615844412e-05
0.211,8.30884615844411e-05
0.212,8.47317949177711e-05
0.213,8.63784615844394e-05
0.214,8.7955128251108e-05
0.215,8.95317949177765e-05
0.216,9.11117949177764e-05
0.217,9.2618461584438e-05
0.218,9.40584615844383e-05
0.219,9.54984615844385e-05
0.22,9.68717949177773e-05
0.221,9.81751282511092e-05
0.222,9.94084615844412e-05
0.223,0.000100641794917773
0.224,0.000101808461584444
0.225,0.000102905128251108
0.226,0.00010393512825111
0.227,0.000104961794917774
0.228,0.000105855128251108
0.229,0.000106745128251111
0.23,0.000107501794917776
0.231,0.000108185128251111
0.232,0.000108805128251108
0.233,0.000109351794917774
0.234,0.000109831794917772
0.235,0.000110175128251109
0.236,0.000110518461584438
0.237,0.000110725128251106
0.238,0.000110861794917774
0.239,0.000110998461584443
0.24,0.000110998461584443
0.241,0.000110928461584443
0.242,0.000110791794917775
0.243,0.000110585128251107
0.244,0.000110311794917777
0.245,0.00010996846158444
0.246,0.000109488461584443
0.247,0.000109008461584438
0.248,0.000108391794917772
0.249,0.000107705128251106
0.25,0.00010688512825111
0.251,0.000106061794917776
0.252,0.000105101794917774
0.253,0.000104071794917771
0.254,0.000102905128251108
0.255,0.000101671794917776
0.256,0.000100368461584444
0.257,9.89284615844435e-05
0.258,9.74184615844435e-05
0.259,9.57751282511064e-05
0.26,9.40584615844383e-05
0.261,9.22751282511086e-05
0.262,9.02884615844422e-05
0.263,8.82317949177759e-05
0.264,8.603512825111e-05
0.265,8.37717949177756e-05
0.266,8.13717949177729e-05
0.267,7.87651282511091e-05
0.268,7.60917949177768e-05
0.269,7.33484615844447e-05
0.27,7.03984615844444e-05
0.271,6.73817949177757e-05
0.272,6.42951282511071e-05
0.273,6.10717949177772e-05
0.274,5.7711794917772e-05
0.275,5.42851282511054e-05
0.276,5.07851282511076e-05
0.277,4.71517949177727e-05
0.278,4.34484615844381e-05
0.279,3.96084615844422e-05
0.28,3.56984615844395e-05
0.281,3.17217949177753e-05
0.282,2.76084615844428e-05
0.283,2.34251282511104e-05
0.284,1.91717949177712e-05
0.285,1.48517949177776e-05
0.286,1.03951282511086e-05
0.287,5.93512825110832e-06
0.288,1.34179491777101e-06
0.289,-3.25487174889054e-06
0.29,-7.91820508222766e-06
0.291,-1.2718205082226e-05
0.292,-1.75182050822244e-05
0.293,-2.24548717488911e-05
0.294,-2.73915384155578e-05
0.295,-3.24682050822242e-05
0.296,-3.75415384155592e-05
0.297,-4.27548717488939e-05
0.298,-4.79648717488902e-05
0.299,-5.33148717488931e-05
0.3,-5.86648717488891e-05
0.301,-6.40815384155605e-05
0.302,-6.95015384155563e-05
0.303,-7.5054871748889e-05
0.304,-8.06082050822288e-05
0.305,-8.62348717488927e-05
0.306,-9.18582050822253e-05
0.307,-9.76182050822261e-05
0.308,-0.000103308205082227
0.309,-0.000109138205082228
0.31,-0.000114968205082229
0.311,-0.000120864871748891
0.312,-0.00012676153841556
0.313,-0.000132728205082229
0.314,-0.000138694871748891
0.315,-0.00014466153841556
0.316,-0.000150698205082229
0.317,-0.000156731538415559
0.318,-0.00016283487174889
0.319,-0.000168871538415558
0.32,-0.000174974871748889
0.321,-0.000181144871748895
0.322,-0.000187248205082225
0.323,-0.000193421538415562
0.324,-0.000199594871748892
0.325,-0.000205764871748891
0.326,-0.000211938205082228
0.327,-0.000218178205082227
0.328,-0.000224418205082225
0.329,-0.000230658205082224
0.33,-0.000236901538415561
0.331,-0.000243208205082228
0.332,-0.000249518205082226
0.333,-0.000255898205082225
0.334,-0.000262274871748892
0.335,-0.000268721538415558
0.336,-0.000275168205082225
0.337,-0.00028168153841556
0.338,-0.000288194871748895
0.339,-0.000294711538415562
0.34,-0.00030129487174889
0.341,-0.000307878205082225
0.342,-0.00031453153841556
0.343,-0.000321181538415556
0.344,-0.000327834871748891
0.345,-0.000334488205082226
0.346,-0.000341071538415561
0.347,-0.000347721538415558
0.348,-0.000354304871748893
0.349,-0.000360958205082228
0.35,-0.000367474871748894
0.351,-0.000374058205082222
0.352,-0.000380641538415557
0.353,-0.000387088205082224
0.354,-0.000393601538415559
0.355,-0.000399981538415558
0.356,-0.000406358205082225
0.357,-0.000412668205082223
0.358,-0.00041897487174889
0.359,-0.000425214871748889
0.36,-0.000431388205082226
0.361,-0.000437491538415556
0.362,-0.000443594871748893
0.363,-0.000449561538415555
0.364,-0.000455528205082224
0.365,-0.000461424871748894
0.366,-0.000467324871748894
0.367,-0.000473084871748895
0.368,-0.000478844871748889
0.369,-0.000484538205082228
0.37,-0.000490161538415561
0.371,-0.000495714871748894
0.372,-0.000501201538415558
0.373,-0.000506688205082222
0.374,-0.000512034871748894
0.375,-0.00051738487174889
0.376,-0.000522668205082224
0.377,-0.000527878205082228
0.378,-0.000533021538415555
0.379,-0.00053816487174889
0.38,-0.000543238205082225
0.381,-0.000548314871748892
0.382,-0.000553321538415558
0.383,-0.000558258205082225
0.384,-0.000563198205082223
0.385,-0.00056806487174889
0.386,-0.000572864871748895
0.387,-0.000577664871748893
0.388,-0.000582468205082223
0.389,-0.000587198205082229
0.39,-0.000591861538415559
0.391,-0.000596524871748889
0.392,-0.000601121538415558
0.393,-0.000605714871748895
0.394,-0.000610241538415557
0.395,-0.000614698205082226
0.396,-0.000619154871748895
0.397,-0.000623474871748895
0.398,-0.000627798205082227
0.399,-0.000632048205082228
0.4,-0.00063623153841556
0.401,-0.000640348205082224
0.402,-0.000644394871748895
0.403,-0.000648371538415559
0.404,-0.000652211538415555
0.405,-0.000656051538415558
0.406,-0.000659754871748893
0.407,-0.000663458205082228
0.408,-0.000667091538415555
0.409,-0.00067059153841556
0.41,-0.000674088205082227
0.411,-0.000677518205082225
0.412,-0.000680944871748891
0.413,-0.000684238205082228
0.414,-0.000687528205082226
0.415,-0.000690684871748895
0.416,-0.000693838205082225
0.417,-0.000696994871748893
0.418,-0.000700078205082223
0.419,-0.000703164871748892
0.42,-0.000706181538415561
0.421,-0.000709201538415561
0.422,-0.000712148205082223
0.423,-0.000715098205082223
0.424,-0.000718048205082223
0.425,-0.000720994871748892
0.426,-0.000723874871748893
0.427,-0.000726688205082225
0.428,-0.000729498205082225
0.429,-0.000732311538415557
0.43,-0.000735054871748889
0.431,-0.000737798205082228
0.432,-0.000740471538415561
0.433,-0.000743078205082225
0.434,-0.000745684871748895
0.435,-0.000748221538415559
0.436,-0.000750758205082223
0.437,-0.000753228205082226
0.438,-0.00075569487174889
0.439,-0.000758094871748893
0.44,-0.000760498205082227
0.441,-0.000762828205082223
0.442,-0.000765158205082226
0.443,-0.00076742153841556
0.444,-0.000769618205082226
0.445,-0.00077181153841556
0.446,-0.000774008205082226
0.447,-0.000776131538415561
0.448,-0.000778258205082227
0.449,-0.000780314871748893
0.45,-0.000782374871748891
0.451,-0.000784361538415557
0.452,-0.000786418205082224
0.453,-0.000788408205082229
0.454,-0.000790398205082226
0.455,-0.000792384871748893
0.456,-0.000794304871748891
0.457,-0.000796224871748896
0.458,-0.000798214871748893
0.459,-0.000800134871748891
0.46,-0.000802054871748889
0.461,-0.000804044871748894
0.462,-0.000805964871748892
0.463,-0.00080788487174889
0.464,-0.000809804871748895
0.465,-0.000811724871748893
0.466,-0.000813644871748891
0.467,-0.000815564871748889
0.468,-0.000817484871748894
0.469,-0.000819338205082223
0.47,-0.000821258205082228
0.471,-0.000823178205082226
0.472,-0.000825098205082224
0.473,-0.000827018205082222
0.474,-0.000828938205082227
0.475,-0.000830858205082225
0.476,-0.000832778205082223
0.477,-0.000834698205082228
0.478,-0.000836618205082226
0.479,-0.000838471538415555
0.48,-0.00084039153841556
0.481,-0.000842241538415558
0.482,-0.000844094871748895
0.483,-0.000845944871748893
0.484,-0.000847798205082222
0.485,-0.000849648205082228
0.486,-0.000851431538415557
0.487,-0.000853284871748894
0.488,-0.000855134871748892
0.489,-0.000856988205082228
0.49,-0.000858768205082227
0.491,-0.000860621538415556
0.492,-0.000862471538415561
0.493,-0.000864324871748891
0.494,-0.000866174871748889
0.495,-0.000868028205082225
0.496,-0.000869811538415562
0.497,-0.00087166153841556
0.498,-0.00087344487174889
0.499,-0.000875298205082226
0.5,-0.000877078205082225
0.501,-0.000878931538415561
0.502,-0.000880714871748891
0.503,-0.000882568205082227
0.504,-0.000884418205082225
0.505,-0.000886271538415562
0.506,-0.00088812153841556
0.507,-0.000889971538415558
0.508,-0.000891754871748895
0.509,-0.000893608205082224
0.51,-0.000895458205082222
0.511,-0.000897241538415559
0.512,-0.000899094871748896
0.513,-0.000900878205082225
0.514,-0.000902658205082224
0.515,-0.00090444153841556
0.516,-0.00090622487174889
0.517,-0.000908008205082226
0.518,-0.000909724871748895
0.519,-0.000911438205082224
0.52,-0.000913151538415561
0.521,-0.000914798205082223
0.522,-0.000916444871748891
0.523,-0.000918088205082228
0.524,-0.000919668205082228
0.525,-0.000921244871748889
0.526,-0.000922754871748889
0.527,-0.000924261538415558
0.528,-0.000925701538415558
0.529,-0.000927141538415559
0.53,-0.00092851487174889
0.531,-0.000929884871748891
0.532,-0.000931188205082222
0.533,-0.000932421538415562
0.534,-0.000933588205082225
0.535,-0.000934754871748889
0.536,-0.00093585153841556
0.537,-0.000936881538415562
0.538,-0.000937908205082226
0.539,-0.00093880153841556
0.54,-0.000939624871748894
0.541,-0.000940378205082229
0.542,-0.000941131538415556
0.543,-0.000941748205082229
0.544,-0.000942298205082227
0.545,-0.000942778205082224
0.546,-0.000943188205082222
0.547,-0.00094346487174889
0.548,-0.000943668205082227
0.549,-0.000943738205082227
0.55,-0.000943668205082227
0.551,-0.000943531538415559
0.552,-0.000943188205082222
0.553,-0.000942708205082224
0.554,-0.000942161538415558
0.555,-0.000941338205082224
0.556,-0.000940448205082228
0.557,-0.000939281538415558
0.558,-0.000937978205082226
0.559,-0.000936401538415557
0.56,-0.000934618205082228
0.561,-0.000932628205082223
0.562,-0.000930298205082227
0.563,-0.000927758205082225
0.564,-0.000924878205082224
0.565,-0.000921654871748894
0.566,-0.000918088205082228
0.567,-0.000914111538415557
0.568,-0.000909791538415556
0.569,-0.000905061538415557
0.57,-0.000899848205082223
0.571,-0.00089422487174889
0.572,-0.00088819153841556
0.573,-0.000881608205082225
0.574,-0.000874474871748892
0.575,-0.000866931538415562
0.576,-0.000858768205082227
0.577,-0.000850061538415557
0.578,-0.000840871538415558
0.579,-0.000831064871748893
0.58,-0.000820641538415562
0.581,-0.000809668205082227
0.582,-0.000798078205082225
0.583,-0.000785871538415557
0.584,-0.000773048205082224
0.585,-0.000759604871748893
0.586,-0.000745614871748896
0.587,-0.000730941538415557
0.588,-0.000715714871748889
0.589,-0.000699874871748894
0.59,-0.000683414871748894
0.591,-0.000666408205082228
0.592,-0.000648714871748889
0.593,-0.000630471538415559
0.594,-0.000611681538415557
0.595,-0.000592274871748895
0.596,-0.00057238487174889
0.597,-0.000551881538415558
0.598,-0.000530964871748889
0.599,-0.000509501538415561
0.6,-0.000487621538415559
0.601,-0.00046526487174889
0.602,-0.000442568205082222
0.603,-0.000419388205082226
0.604,-0.000395864871748894
0.605,-0.000371931538415556
0.606,-0.000347721538415558
0.607,-0.000323171538415561
0.608,-0.000298348205082228
0.609,-0.000273248205082227
0.61,-0.000247941538415558
0.611,-0.000222431538415559
0.612,-0.000196644871748892
0.613,-0.000170791538415556
0.614,-0.00014473153841556
0.615,-0.000118534871748895
0.616,-9.21315384155619e-05
0.617,-6.57282050822289e-05
0.618,-3.91215384155591e-05
0.619,-1.25115384155579e-05
0.62,1.41651282511047e-05
0.621,4.09784615844427e-05
0.622,6.78617949177734e-05
0.623,9.47451282511112e-05
0.624,0.000121698461584442
0.625,0.000148648461584441
0.626,0.00017559846158444
0.627,0.000202551794917778
0.628,0.000229431794917777
0.629,0.000256315128251108
0.63,0.000283198461584439
0.631,0.000309945128251108
0.632,0.000336688461584439
0.633,0.00036329846158444
0.634,0.000389908461584442
0.635,0.000416311794917775
0.636,0.000442645128251108
0.637,0.000468908461584441
0.638,0.000494968461584438
0.639,0.000520891794917773
0.64,0.00054667846158444
0.641,0.000572325128251107
0.642,0.000597835128251106
0.643,0.000623075128251107
0.644,0.000648175128251108
0.645,0.00067313512825111
0.646,0.000697825128251106
0.647,0.000722308461584441
0.648,0.000746581794917777
0.649,0.000770655128251107
0.65,0.000794451794917776
0.651,0.000818041794917777
0.652,0.000841291794917773
0.653,0.000864401794917776
0.654,0.000887168461584443
0.655,0.000909661794917773
0.656,0.000931881794917774
0.657,0.000953828461584438
0.658,0.000975431794917772
0.659,0.000996758461584439
0.66,0.00101781179491778
0.661,0.00103852179491778
0.662,0.00105889179491777
0.663,0.00107898179491778
0.664,0.00109866179491777
0.665,0.00111807512825111
0.666,0.00113707179491778
0.667,0.00115579179491777
0.668,0.00117410512825111
0.669,0.00119200512825111
0.67,0.00120962512825111
0.671,0.00122684179491777
0.672,0.00124364179491777
0.673,0.00126010179491777
0.674,0.00127621846158444
0.675,0.00129191846158444
0.676,0.00130727846158444
0.677,0.00132223512825111
0.678,0.00133683846158444
0.679,0.00135097179491777
0.68,0.00136475179491778
0.681,0.00137819179491778
0.682,0.00139115179491777
0.683,0.00140377179491778
0.684,0.00141597179491777
0.685,0.00142777179491778
0.686,0.00143922512825111
0.687,0.00145034179491777
0.688,0.00146096512825111
0.689,0.00147124846158444
0.69,0.00148112512825111
0.691,0.00149066179491777
0.692,0.00149971846158444
0.693,0.00150842179491777
0.694,0.00151671846158444
0.695,0.00152460179491777
0.696,0.00153207846158444
0.697,0.00153921512825111
0.698,0.00154586179491777
0.699,0.00155210179491777
0.7,0.00155793512825111
0.701,0.00156341846158444
0.702,0.00156843179491777
0.703,0.00157309179491777
0.704,0.00157733846158444
0.705,0.00158117846158444
0.706,0.00158461179491777
0.707,0.00158769512825111
0.708,0.00159043846158444
0.709,0.00159277179491778
0.71,0.00159469179491777
0.711,0.00159627179491777
0.712,0.00159750846158444
0.713,0.00159833179491777
0.714,0.00159881179491778
0.715,0.00159894846158444
0.716,0.00159873512825111
0.717,0.00159819179491777
0.718,0.00159737179491778
0.719,0.00159619846158444
0.72,0.00159469179491777
0.721,0.00159291179491778
0.722,0.00159078846158444
0.723,0.00158838846158444
0.724,0.00158563846158444
0.725,0.00158269179491778
0.726,0.00157939846158444
0.727,0.00157583512825111
0.728,0.00157199512825111
0.729,0.00156795179491777
0.73,0.00156363179491777
0.731,0.00155903512825111
0.732,0.00155415846158444
0.733,0.00154915846158444
0.734,0.00154387846158444
0.735,0.0015383951282511
0.736,0.00153263512825111
0.737,0.00152673512825111
0.738,0.00152062512825111
0.739,0.0015143851282511
0.74,0.00150787846158444
0.741,0.00150122179491777
0.742,0.00149436179491778
0.743,0.00148736512825111
0.744,0.00148023846158444
0.745,0.00147290179491777
0.746,0.0014654251282511
0.747,0.00145788179491777
0.748,0.00145012846158444
0.749,0.00144224512825111
0.75,0.00143428846158444
0.751,0.00142619179491778
0.752,0.00141796846158444
0.753,0.00140960512825111
0.754,0.00140116846158444
0.755,0.00139266512825111
0.756,0.00138401512825111
0.757,0.00137531179491778
0.758,0.00136646846158444
0.759,0.00135755179491778
0.76,0.00134863512825111
0.761,0.00133957846158444
0.762,0.00133045846158444
0.763,0.00132127512825111
0.764,0.00131201512825111
0.765,0.00130275846158444
0.766,0.00129335846158444
0.767,0.00128389846158444
0.768,0.00127443846158444
0.769,0.00126482512825111
0.77,0.00125522512825111
0.771,0.00124556179491778
0.772,0.00123582512825111
0.773,0.00122608512825111
0.774,0.00121620846158444
0.775,0.00120633179491777
0.776,0.00119638846158444
0.777,0.00118644846158444
0.778,0.00117643179491777
0.779,0.00116641512825111
0.78,0.00115633512825111
0.781,0.00114619179491778
0.782,0.00113603846158444
0.783,0.00112581846158444
0.784,0.00111559846158444
0.785,0.00110531846158444
0.786,0.00109495846158444
0.787,0.00108467846158444
0.788,0.00107425512825111
0.789,0.00106382512825111
0.79,0.00105340512825111
0.791,0.00104291179491778
0.792,0.00103234846158444
0.793,0.00102178846158444
0.794,0.00101115846158444
0.795,0.00100046179491777
0.796,0.000989695128251106
0.797,0.000978858461584439
0.798,0.000968021794917772
0.799,0.000957051794917775
0.8,0.000946078461584439
0.801,0.000934968461584443
0.802,0.000923858461584439
0.803,0.000912611794917773
0.804,0.00090129846158444
0.805,0.000889981794917775
0.806,0.000878458461584442
0.807,0.00086693846158444
0.808,0.000855348461584438
0.809,0.000843621794917776
0.81,0.000831895128251106
0.811,0.000820031794917775
0.812,0.000808098461584444
0.813,0.000796098461584444
0.814,0.000784095128251106
0.815,0.000772025128251107
0.816,0.000759888461584439
0.817,0.000747681794917772
0.818,0.000735475128251111
0.819,0.000723198461584444
0.82,0.000710921794917776
0.821,0.00069857846158444
0.822,0.000686235128251111
0.823,0.000673888461584444
0.824,0.000661545128251108
0.825,0.000649271794917772
0.826,0.000636925128251105
0.827,0.000624581794917776
0.828,0.00061230846158444
0.829,0.000600031794917772
0.83,0.000587755128251105
0.831,0.000575548461584444
0.832,0.000563411794917776
0.833,0.000551271794917777
0.834,0.000539201794917778
0.835,0.000527201794917771
0.836,0.000515198461584441
0.837,0.000503335128251109
0.838,0.00049153846158444
0.839,0.000479811794917777
0.84,0.000468155128251107
0.841,0.000456631794917774
0.842,0.000445181794917772
0.843,0.000433865128251107
0.844,0.000422618461584442
0.845,0.000411508461584438
0.846,0.000400535128251109
0.847,0.000389701794917773
0.848,0.000378935128251106
0.849,0.000368371794917775
0.85,0.000357948461584445
0.851,0.000347661794917775
0.852,0.000337581794917773
0.853,0.00032756846158444
0.854,0.000317761794917775
0.855,0.000308161794917771
0.856,0.000298628461584443
0.857,0.000289301794917776
0.858,0.000280181794917777
0.859,0.000271198461584439
0.86,0.000262351794917777
0.861,0.000253708461584444
0.862,0.000245205128251111
0.863,0.000236908461584439
0.864,0.000228748461584443
0.865,0.000220791794917776
0.866,0.000213041794917777
0.867,0.000205431794917771
0.868,0.000198025128251109
0.869,0.000190821794917777
0.87,0.000183758461584444
0.871,0.000176835128251111
0.872,0.000170181794917776
0.873,0.000163668461584441
0.874,0.000157288461584442
0.875,0.000151115128251105
0.876,0.000145081794917775
0.877,0.000139321794917774
0.878,0.000133628461584441
0.879,0.000128211794917777
0.88,0.000122931794917774
0.881,0.000117855128251107
0.882,0.000112918461584441
0.883,0.000108185128251111
0.884,0.000103591794917774
0.885,9.91351282511046e-05
0.886,9.48817949177724e-05
0.887,9.06984615844401e-05
0.888,8.67217949177759e-05
0.889,8.2881794917773e-05
0.89,7.91784615844383e-05
0.891,7.56817949177718e-05
0.892,7.23184615844424e-05
0.893,6.90984615844438e-05
0.894,6.60117949177753e-05
0.895,6.3061794917775e-05
0.896,6.02517949177744e-05
0.897,5.76451282511106e-05
0.898,5.51084615844395e-05
0.899,5.27051282511055e-05
0.9,5.0511794917778e-05
0.901,4.83851282511048e-05
0.902,4.63984615844384e-05
0.903,4.4545128251109e-05
0.904,4.28984615844406e-05
0.905,4.13217949177721e-05
0.906,3.98817949177718e-05
0.907,3.85784615844399e-05
0.908,3.74151282511077e-05
0.909,3.63151282511055e-05
0.91,3.54251282511099e-05
0.911,3.46717949177755e-05
0.912,3.39851282511097e-05
0.913,3.34351282511051e-05
0.914,3.30251282511072e-05
0.915,3.27517949177776e-05
0.916,3.25451282511095e-05
0.917,3.24084615844411e-05
0.918,3.24084615844411e-05
0.919,3.25451282511095e-05
0.92,3.26817949177778e-05
0.921,3.29551282511074e-05
0.922,3.32317949177753e-05
0.923,3.36417949177732e-05
0.924,3.40517949177711e-05
0.925,3.46017949177757e-05
0.926,3.51517949177733e-05
0.927,3.58351282511078e-05
0.928,3.65217949177737e-05
0.929,3.72084615844395e-05
0.93,3.80317949177737e-05
0.931,3.87851282511081e-05
0.932,3.96084615844422e-05
0.933,4.04317949177764e-05
0.934,4.12551282511106e-05
0.935,4.20784615844377e-05
0.936,4.29684615844404e-05
0.937,4.37917949177746e-05
0.938,4.46151282511088e-05
0.939,4.54384615844429e-05
0.94,4.61917949177773e-05
0.941,4.69451282511046e-05
0.942,4.77017949177773e-05
0.943,4.84551282511047e-05
0.944,4.91417949177776e-05
0.945,4.97584615844436e-05
0.946,5.03051282511098e-05
0.947,5.09251282511072e-05
0.948,5.14051282511049e-05
0.949,5.18151282511099e-05
0.95,5.22251282511078e-05
0.951,5.25017949177757e-05
0.952,5.27751282511053e-05
0.953,5.29817949177735e-05
0.954,5.31184615844418e-05
0.955,5.32551282511101e-05
0.956,5.32551282511101e-05
0.957,5.32551282511101e-05
0.958,5.31851282511103e-05
0.959,5.3048461584442e-05
0.96,5.29117949177736e-05
0.961,5.26384615844441e-05
0.962,5.23651282511074e-05
0.963,5.2021794917778e-05
0.964,5.16084615844417e-05
0.965,5.11984615844438e-05
0.966,5.06484615844392e-05
0.967,5.0101794917773e-05
0.968,4.94151282511072e-05
0.969,4.87284615844413e-05
0.97,4.79751282511069e-05
0.971,4.71517949177727e-05
0.972,4.62617949177771e-05
0.973,4.53017949177746e-05
0.974,4.42717949177723e-05
0.975,4.31751282511086e-05
0.976,4.20084615844379e-05
0.977,4.07751282511058e-05
0.978,3.94717949177739e-05
0.979,3.8168461584442e-05
0.98,3.67284615844418e-05
0.981,3.52884615844416e-05
0.982,3.3711794917773e-05
0.983,3.20651282511047e-05
0.984,3.04184615844434e-05
0.985,2.86351282511067e-05
0.986,2.67851282511086e-05
0.987,2.48651282511106e-05
0.988,2.28751282511058e-05
0.989,2.08851282511081e-05
0.99,1.87617949177733e-05
0.991,1.66351282511072e-05
0.992,1.43717949177728e-05
0.993,1.21084615844384e-05
0.994,9.70846158444276e-06
0.995,7.30846158444003e-06
0.996,4.77179491777605e-06
0.997,2.16512825110519e-06
0.998,-5.11538415558421e-07
0.999,-3.25487174889054e-06
1,-6.06487174889117e-06
1.001,-8.87820508222311e-06
1.002,-1.18248717488921e-05
1.003,-1.49115384155606e-05
1.004,-1.79982050822222e-05
1.005,-2.12215384155591e-05
1.006,-2.45115384155574e-05
1.007,-2.78715384155556e-05
1.008,-3.13015384155606e-05
1.009,-3.47982050822271e-05
1.01,-3.84348717488932e-05
1.011,-4.21382050822278e-05
1.012,-4.59082050822239e-05
1.013,-4.97482050822268e-05
1.014,-5.37282050822223e-05
1.015,-5.77748717488934e-05
1.016,-6.18182050822261e-05
1.017,-6.60015384155585e-05
1.018,-7.02548717488906e-05
1.019,-7.46448717488911e-05
1.02,-7.90315384155603e-05
1.021,-8.3558205082222e-05
1.022,-8.81548717488906e-05
1.023,-9.28182050822278e-05
1.024,-9.75482050822263e-05
1.025,-0.000102348205082225
1.026,-0.000107218205082223
1.027,-0.000112088205082228
1.028,-0.000117094871748895
1.029,-0.000122098205082223
1.03,-0.000127241538415558
1.031,-0.000132384871748893
1.032,-0.000137528205082227
1.033,-0.000142741538415562
1.034,-0.000148021538415558
1.035,-0.000153371538415561
1.036,-0.000158721538415557
1.037,-0.000164068205082229
1.038,-0.000169488205082224
1.039,-0.000174974871748889
1.04,-0.00018046153841556
1.041,-0.000186014871748893
1.042,-0.000191568205082225
1.043,-0.00019712487174889
1.044,-0.000202748205082222
1.045,-0.000208438205082223
1.046,-0.000214061538415556
1.047,-0.000219824871748895
1.048,-0.000225514871748889
1.049,-0.000231278205082228
1.05,-0.000237104871748891
1.051,-0.000242934871748891
1.052,-0.000248764871748892
1.053,-0.000254594871748893
1.054,-0.000260491538415562
1.055,-0.000266388205082224
1.056,-0.000272354871748893
1.057,-0.000278251538415562
1.058,-0.000284218205082224
1.059,-0.000290184871748893
1.06,-0.000296151538415562
1.061,-0.000302118205082224
1.062,-0.000308084871748893
1.063,-0.000314051538415562
1.064,-0.000320084871748893
1.065,-0.000326051538415562
1.066,-0.000332018205082224
1.067,-0.000337984871748893
1.068,-0.000343951538415562
1.069,-0.000349984871748892
1.07,-0.000355951538415561
1.071,-0.000361918205082223
1.072,-0.000367884871748892
1.073,-0.000373851538415561
1.074,-0.000379818205082223
1.075,-0.000385851538415561
1.076,-0.000391818205082223
1.077,-0.000397784871748892
1.078,-0.000403751538415561
1.079,-0.000409718205082223
1.08,-0.000415614871748892
1.081,-0.000421581538415561
1.082,-0.000427478205082223
1.083,-0.000433308205082224
1.084,-0.000439208205082224
1.085,-0.000445034871748894
1.086,-0.000450794871748895
1.087,-0.000456558205082227
1.088,-0.000462318205082228
1.089,-0.000468008205082229
1.09,-0.000473701538415561
1.091,-0.000479394871748893
1.092,-0.000485018205082226
1.093,-0.000490641538415559
1.094,-0.000496194871748891
1.095,-0.000501751538415555
1.096,-0.000507304871748895
1.097,-0.000512791538415559
1.098,-0.000518278205082224
1.099,-0.000523764871748895
1.1,-0.000529181538415559
1.101,-0.000534598205082224
1.102,-0.000540018205082227
1.103,-0.000545368205082223
1.104,-0.000550784871748894
1.105,-0.000556131538415559
1.106,-0.000561414871748893
1.107,-0.000566761538415558
1.108,-0.000572041538415561
1.109,-0.000577254871748896
1.11,-0.000582534871748892
1.111,-0.000587678205082226
1.112,-0.000592821538415561
1.113,-0.000597964871748889
1.114,-0.000603041538415555
1.115,-0.000608114871748891
1.116,-0.000613121538415557
1.117,-0.000618058205082224
1.118,-0.00062299487174889
1.119,-0.000627864871748889
1.12,-0.000632734871748894
1.121,-0.000637534871748892
1.122,-0.000642268205082222
1.123,-0.000646998205082228
1.124,-0.000651731538415558
1.125,-0.000656394871748895
1.126,-0.000660988205082225
1.127,-0.000665584871748894
1.128,-0.000670111538415555
1.129,-0.000674568205082224
1.13,-0.000679024871748893
1.131,-0.000683481538415562
1.132,-0.000687871538415556
1.133,-0.000692191538415556
1.134,-0.000696514871748895
1.135,-0.000700764871748889
1.136,-0.000705018205082229
1.137,-0.000709201538415561
1.138,-0.000713384871748893
1.139,-0.000717498205082226
1.14,-0.000721611538415558
1.141,-0.000725658205082222
1.142,-0.000729634871748893
1.143,-0.000733681538415557
1.144,-0.00073759153841556
1.145,-0.000741568205082224
1.146,-0.000745478205082227
1.147,-0.000749318205082223
1.148,-0.000753158205082226
1.149,-0.00075693153841556
1.15,-0.000760701538415557
1.151,-0.000764404871748891
1.152,-0.000768041538415557
1.153,-0.000771608205082223
1.154,-0.000775171538415559
1.155,-0.000778738205082225
1.156,-0.000782234871748891
1.157,-0.000785664871748889
1.158,-0.000789094871748894
1.159,-0.000792454871748893
1.16,-0.000795814871748891
1.161,-0.000799104871748889
1.162,-0.000802328205082226
1.163,-0.000805554871748894
1.164,-0.000808708205082224
1.165,-0.000811861538415561
1.166,-0.000814948205082223
1.167,-0.000818034871748891
1.168,-0.00082112153841556
1.169,-0.00082420487174889
1.17,-0.00082722487174889
1.171,-0.000830308205082227
1.172,-0.000833328205082228
1.173,-0.000836344871748889
1.174,-0.000839291538415558
1.175,-0.000842241538415558
1.176,-0.000845121538415559
1.177,-0.000848004871748891
1.178,-0.000850814871748891
1.179,-0.000853624871748892
1.18,-0.000856368205082224
1.181,-0.000859111538415556
1.182,-0.000861788205082227
1.183,-0.000864391538415559
1.184,-0.000866998205082223
1.185,-0.000869534871748894
1.186,-0.00087200487174889
1.187,-0.000874404871748892
1.188,-0.000876738205082227
1.189,-0.000879068205082222
1.19,-0.000881331538415557
1.191,-0.000883528205082223
1.192,-0.000885721538415557
1.193,-0.000887848205082223
1.194,-0.00088990487174889
1.195,-0.000891961538415556
1.196,-0.000894018205082222
1.197,-0.000896008205082227
1.198,-0.000897928205082225
1.199,-0.000899848205082223
1.2,-0.000901768205082228
1.201,-0.000903621538415557
1.202,-0.000905471538415555
1.203,-0.000907321538415561
1.204,-0.00090910487174889
1.205,-0.000910888205082227
1.206,-0.000912604871748895
1.207,-0.000914384871748893
1.208,-0.000916101538415562
1.209,-0.000917748205082223
1.21,-0.00091946153841556
1.211,-0.000921108205082228
1.212,-0.000922754871748889
1.213,-0.000924331538415558
1.214,-0.000925978205082226
1.215,-0.000927554871748895
1.216,-0.000929131538415556
1.217,-0.000930641538415556
1.218,-0.000932218205082225
1.219,-0.000933724871748894
1.22,-0.000935234871748894
1.221,-0.000936744871748894
1.222,-0.000938184871748894
1.223,-0.000939691538415556
1.224,-0.000941131538415556
1.225,-0.000942571538415556
1.226,-0.000944011538415556
1.227,-0.000945451538415556
1.228,-0.000946824871748895
1.229,-0.000948194871748896
1.23,-0.000949568205082227
1.231,-0.000950938205082228
1.232,-0.000952311538415559
1.233,-0.000953614871748891
1.234,-0.000954984871748892
1.235,-0.000956288205082224
1.236,-0.000957591538415556
1.237,-0.000958894871748894
1.238,-0.000960198205082226
1.239,-0.000961501538415558
1.24,-0.00096280487174889
1.241,-0.000964104871748891
1.242,-0.000965478205082223
1.243,-0.000966848205082223
1.244,-0.000968151538415562
1.245,-0.000969524871748894
1.246,-0.000970894871748894
1.247,-0.000972268205082226
1.248,-0.000973638205082226
1.249,-0.000974941538415558
1.25,-0.000976311538415558
1.251,-0.00097761487174889
1.252,-0.000978918205082222
1.253,-0.000980291538415561
1.254,-0.000981594871748893
1.255,-0.000982828205082225
1.256,-0.000984131538415557
1.257,-0.000985434871748889
1.258,-0.000986668205082228
1.259,-0.00098790153841556
1.26,-0.000989138205082223
1.261,-0.000990371538415556
1.262,-0.000991538205082226
1.263,-0.000992701538415558
1.264,-0.000993868205082222
1.265,-0.000994968205082224
1.266,-0.000996131538415556
1.267,-0.000997231538415559
1.268,-0.000998328205082222
1.269,-0.000999354871748893
1.27,-0.00100045153841556
1.271,-0.00100148153841556
1.272,-0.00100251153841556
1.273,-0.00100347153841556
1.274,-0.00100443153841556
1.275,-0.00100539153841556
1.276,-0.00100628153841556
1.277,-0.00100710487174889
1.278,-0.00100792820508223
1.279,-0.00100868153841556
1.28,-0.00100936820508223
1.281,-0.00100998487174889
1.282,-0.00101053487174889
1.283,-0.00101108153841556
1.284,-0.00101149487174889
1.285,-0.00101183820508223
1.286,-0.00101211153841556
1.287,-0.00101231820508223
1.288,-0.0010123848717489
1.289,-0.0010123848717489
1.29,-0.00101224820508223
1.291,-0.00101197487174889
1.292,-0.00101163153841556
1.293,-0.00101108153841556
1.294,-0.00101039820508223
1.295,-0.00100950487174889
1.296,-0.00100847820508222
1.297,-0.00100717487174889
1.298,-0.00100566487174889
1.299,-0.00100395153841556
1.3,-0.00100196153841556
1.301,-0.000999698205082223
1.302,-0.000997091538415559
1.303,-0.000994211538415559
1.304,-0.00099092153841556
1.305,-0.000987284871748894
1.306,-0.000983238205082223
1.307,-0.000978781538415561
1.308,-0.000973844871748894
1.309,-0.000968494871748891
1.31,-0.000962598205082222
1.311,-0.000956221538415562
1.312,-0.000949291538415559
1.313,-0.000941818205082229
1.314,-0.000933724871748894
1.315,-0.000925084871748892
1.316,-0.000915828205082225
1.317,-0.00090595153841556
1.318,-0.000895391538415561
1.319,-0.000884281538415557
1.32,-0.000872418205082226
1.321,-0.00085993487174889
1.322,-0.000846768205082227
1.323,-0.000832848205082223
1.324,-0.000818308205082228
1.325,-0.000803084871748892
1.326,-0.000787104871748889
1.327,-0.000770508205082228
1.328,-0.000753228205082226
1.329,-0.000735261538415557
1.33,-0.000716604871748892
1.331,-0.000697334871748891
1.332,-0.000677378205082225
1.333,-0.000656808205082224
1.334,-0.000635614871748894
1.335,-0.000613874871748891
1.336,-0.000591518205082222
1.337,-0.000568614871748894
1.338,-0.000545091538415562
1.339,-0.000521158205082224
1.34,-0.000496674871748889
1.341,-0.000471781538415556
1.342,-0.000446408205082225
1.343,-0.000420621538415558
1.344,-0.000394491538415562
1.345,-0.000368021538415561
1.346,-0.000341208205082223
1.347,-0.000314118205082224
1.348,-0.000286688205082227
1.349,-0.000259051538415562
1.35,-0.000231138205082229
1.351,-0.000203021538415559
1.352,-0.000174768205082228
1.353,-0.000146308205082228
1.354,-0.000117711538415561
1.355,-8.90448717488933e-05
1.356,-6.02415384155576e-05
1.357,-3.13015384155606e-05
1.358,-2.43153841555636e-06
1.359,2.65784615844404e-05
1.36,5.56551282511058e-05
1.361,8.48017949177779e-05
1.362,0.000113948461584443
1.363,0.000143091794917777
1.364,0.000172238461584442
1.365,0.000201385128251107
1.366,0.000230531794917772
1.367,0.000259608461584445
1.368,0.00028861512825111
1.369,0.000317558461584438
1.37,0.000346428461584443
1.371,0.000375231794917771
1.372,0.000403965128251107
1.373,0.000432561794917775
1.374,0.000461021794917774
1.375,0.000489345128251105
1.376,0.000517531794917775
1.377,0.000545581794917776
1.378,0.000573491794917778
1.379,0.000601198461584443
1.38,0.00062869846158444
1.381,0.000656058461584444
1.382,0.000683148461584443
1.383,0.000710031794917773
1.384,0.000736778461584443
1.385,0.000763178461584444
1.386,0.000789445128251109
1.387,0.000815368461584445
1.388,0.000841085128251105
1.389,0.000866595128251111
1.39,0.000891765128251105
1.391,0.000916728461584444
1.392,0.000941415128251109
1.393,0.000965761794917776
1.394,0.000989898461584443
1.395,0.00101369846158444
1.396,0.00103715179491778
1.397,0.00106033179491777
1.398,0.00108323846158444
1.399,0.00110573179491778
1.4,0.00112795179491778
1.401,0.00114975512825111
1.402,0.00117129179491778
1.403,0.00119241179491777
1.404,0.00121326512825111
1.405,0.00123370179491778
1.406,0.00125378512825111
1.407,0.00127347846158444
1.408,0.00129281512825111
1.409,0.00131180179491777
1.41,0.00133039512825111
1.411,0.00134863512825111
1.412,0.00136646846158444
1.413,0.00138388846158444
1.414,0.00140089179491778
1.415,0.00141748846158444
1.416,0.00143374512825111
1.417,0.00144958512825111
1.418,0.00146500846158444
1.419,0.00147996179491777
1.42,0.00149456512825111
1.421,0.00150876179491777
1.422,0.00152254512825111
1.423,0.00153591846158444
1.424,0.00154887846158444
1.425,0.00156143512825111
1.426,0.00157349846158444
1.427,0.00158515846158444
1.428,0.0015964751282511
1.429,0.00160724846158444
1.43,0.00161766846158444
1.431,0.0016276751282511
1.432,0.00163721179491777
1.433,0.00164633179491778
1.434,0.00165504512825111
1.435,0.00166334512825111
1.436,0.00167122512825111
1.437,0.00167870512825111
1.438,0.00168570179491777
1.439,0.00169234512825111
1.44,0.00169852179491778
1.441,0.00170428179491778
1.442,0.00170962512825111
1.443,0.00171463846158444
1.444,0.00171916179491778
1.445,0.00172327846158444
1.446,0.00172704512825111
1.447,0.00173034179491777
1.448,0.00173329512825111
1.449,0.00173582512825111
1.45,0.00173795846158444
1.451,0.00173973846158444
1.452,0.00174110512825111
1.453,0.00174213846158444
1.454,0.00174275846158444
1.455,0.00174302512825111
1.456,0.00174295846158444
1.457,0.00174254512825111
1.458,0.00174179846158444
1.459,0.00174069846158444
1.46,0.00173925846158444
1.461,0.00173754179491778
1.462,0.00173548179491777
1.463,0.00173315846158444
1.464,0.0017305451282511
1.465,0.00172766512825111
1.466,0.00172444179491777
1.467,0.00172101846158444
1.468,0.00171731846158444
1.469,0.00171333846158444
1.47,0.00170908179491778
1.471,0.00170462512825111
1.472,0.00169996179491778
1.473,0.00169495846158444
1.474,0.00168980846158444
1.475,0.00168438846158444
1.476,0.00167876846158444
1.477,0.00167294512825111
1.478,0.00166690512825111
1.479,0.00166066512825111
1.48,0.00165422512825111
1.481,0.00164756846158444
1.482,0.00164077179491777
1.483,0.0016337851282511
1.484,0.00162665179491777
1.485,0.00161931179491777
1.486,0.00161183512825111
1.487,0.00160422846158444
1.488,0.0015964751282511
1.489,0.00158859179491778
1.49,0.00158057179491777
1.491,0.00157241179491778
1.492,0.00156411179491777
1.493,0.00155573846158444
1.494,0.00154723846158444
1.495,0.00153859846158444
1.496,0.00152988179491778
1.497,0.00152103846158444
1.498,0.00151212179491778
1.499,0.00150314179491777
1.5,0.00149402179491777
1.501,0.00148482512825111
1.502,0.00147556846158444
1.503,0.00146624512825111
1.504,0.00145692179491777
1.505,0.00144745179491777
1.506,0.00143792512825111
1.507,0.00142838846158444
1.508,0.00141872512825111
1.509,0.00140905179491777
1.51,0.00139938512825111
1.511,0.00138964846158444
1.512,0.00137990846158444
1.513,0.00137017179491777
1.514,0.00136043179491778
1.515,0.00135069179491777
1.516,0.00134087846158444
1.517,0.00133115179491777
1.518,0.00132141179491777
1.519,0.00131159846158444
1.52,0.00130186179491777
1.521,0.00129205846158444
1.522,0.00128224512825111
1.523,0.00127244179491778
1.524,0.0012627051282511
1.525,0.00125290179491777
1.526,0.00124308846158444
1.527,0.00123328512825111
1.528,0.00122348179491778
1.529,0.00121366846158444
1.53,0.00120379179491778
1.531,0.00119392512825111
1.532,0.00118397179491777
1.533,0.00117403179491778
1.534,0.00116401512825111
1.535,0.00115401179491777
1.536,0.00114399512825111
1.537,0.00113385179491778
1.538,0.00112377179491778
1.539,0.00111355179491778
1.54,0.00110333179491777
1.541,0.00109303846158444
1.542,0.00108275846158444
1.543,0.00107233512825111
1.544,0.00106183846158444
1.545,0.00105127846158444
1.546,0.00104057846158444
1.547,0.00102988179491778
1.548,0.00101911512825111
1.549,0.00100821179491777
1.55,0.000997305128251105
1.551,0.000986265128251108
1.552,0.000975225128251104
1.553,0.000964045128251108
1.554,0.000952798461584443
1.555,0.000941551794917778
1.556,0.000930168461584444
1.557,0.000918785128251111
1.558,0.000907331794917777
1.559,0.000895808461584444
1.56,0.000884221794917774
1.561,0.000872561794917773
1.562,0.00086090512825111
1.563,0.00084917846158444
1.564,0.000837451794917777
1.565,0.000825725128251107
1.566,0.000813858461584444
1.567,0.000802065128251106
1.568,0.000790198461584444
1.569,0.000778335128251105
1.57,0.000766401794917774
1.571,0.000754471794917775
1.572,0.000742538461584444
1.573,0.000730605128251106
1.574,0.000718605128251106
1.575,0.000706671794917775
1.576,0.000694738461584444
1.577,0.000682805128251106
1.578,0.000670871794917775
1.579,0.000658941794917776
1.58,0.000647008461584445
1.581,0.000635141794917775
1.582,0.000623348461584444
1.583,0.000611551794917774
1.584,0.000599825128251111
1.585,0.000588168461584441
1.586,0.000576578461584439
1.587,0.000565058461584445
1.588,0.000553671794917773
1.589,0.000542288461584439
1.59,0.000531041794917774
1.591,0.000519861794917778
1.592,0.000508755128251105
1.593,0.000497781794917777
1.594,0.00048687512825111
1.595,0.000476041794917774
1.596,0.000465345128251106
1.597,0.000454711794917776
1.598,0.000444221794917776
1.599,0.000433798461584438
1.6,0.000423511794917776
1.601,0.000413361794917774
1.602,0.000403278461584441
1.603,0.000393335128251108
1.604,0.000383528461584443
1.605,0.00037385846158444
1.606,0.000364258461584443
1.607,0.000354795128251107
1.608,0.00034546846158444
1.609,0.000336208461584442
1.61,0.000327088461584442
1.611,0.000318175128251105
1.612,0.000309328461584442
1.613,0.000300618461584441
1.614,0.000292045128251108
1.615,0.000283611794917775
1.616,0.000275381794917772
1.617,0.000267218461584444
1.618,0.000259265128251108
1.619,0.000251448461584441
1.62,0.000243765128251111
1.621,0.000236221794917773
1.622,0.000228815128251111
1.623,0.00022154512825111
1.624,0.000214481794917777
1.625,0.000207558461584444
1.626,0.00020083512825111
1.627,0.000194185128251106
1.628,0.000187805128251108
1.629,0.000181498461584441
1.63,0.00017539512825111
1.631,0.000169428461584441
1.632,0.000163668461584441
1.633,0.000157975128251108
1.634,0.000152488461584444
1.635,0.000147071794917772
1.636,0.000141858461584438
1.637,0.00013678512825111
1.638,0.000131845128251105
1.639,0.000127045128251106
1.64,0.000122451794917776
1.641,0.000117925128251107
1.642,0.000113605128251107
1.643,0.000109351794917774
1.644,0.00010530512825111
1.645,0.000101328461584439
1.646,9.74884615844433e-05
1.647,9.37851282511087e-05
1.648,9.02184615844424e-05
1.649,8.67917949177757e-05
1.65,8.34284615844392e-05
1.651,8.02751282511091e-05
1.652,7.71884615844406e-05
1.653,7.43084615844401e-05
1.654,7.14984615844395e-05
1.655,6.88217949177759e-05
1.656,6.62851282511048e-05
1.657,6.38851282511092e-05
1.658,6.1551794917775e-05
1.659,5.93584615844404e-05
1.66,5.72317949177743e-05
1.661,5.52451282511079e-05
1.662,5.32551282511101e-05
1.663,5.14717949177734e-05
1.664,4.96884615844438e-05
1.665,4.79751282511069e-05
1.666,4.63984615844384e-05
1.667,4.48217949177769e-05
1.668,4.33784615844383e-05
1.669,4.20084615844379e-05
1.67,4.06384615844446e-05
1.671,3.93351282511056e-05
1.672,3.80984615844422e-05
1.673,3.69351282511099e-05
1.674,3.57684615844393e-05
1.675,3.46717949177755e-05
1.676,3.36417949177732e-05
1.677,3.26817949177778e-05
1.678,3.17217949177753e-05
1.679,3.08317949177726e-05
1.68,2.99384615844386e-05
1.681,2.91151282511044e-05
1.682,2.83617949177771e-05
1.683,2.76084615844428e-05
1.684,2.69217949177769e-05
1.685,2.61684615844425e-05
1.686,2.54817949177767e-05
1.687,2.48651282511106e-05
1.688,2.42451282511062e-05
1.689,2.36284615844402e-05
1.69,2.3081794917774e-05
1.691,2.25317949177764e-05
1.692,2.19851282511102e-05
1.693,2.14351282511056e-05
1.694,2.08184615844396e-05
1.695,2.0268461584442e-05
1.696,1.97217949177758e-05
1.697,1.91017949177714e-05
1.698,1.84851282511053e-05
1.699,1.78017949177779e-05
1.7,1.71151282511049e-05
1.701,1.63584615844393e-05
1.702,1.56051282511049e-05
1.703,1.47817949177778e-05
1.704,1.39584615844436e-05
1.705,1.30684615844409e-05
1.706,1.21084615844384e-05
1.707,1.10784615844432e-05
1.708,9.98179491777234e-06
1.709,8.88512825110858e-06
1.71,7.65179491777649e-06
1.711,6.41512825110604e-06
1.712,5.11179491777414e-06
1.713,3.74179491777373e-06
1.714,2.30179491777351e-06
1.715,7.91794917773478e-07
1.716,-7.1487174889525e-07
1.717,-2.36153841555655e-06
1.718,-4.00820508222491e-06
1.719,-5.65487174889326e-06
1.72,-7.36820508222307e-06
1.721,-9.08153841555993e-06
1.722,-1.09348717488894e-05
1.723,-1.27848717488946e-05
1.724,-1.47048717488925e-05
1.725,-1.66948717488903e-05
1.726,-1.86848717488951e-05
1.727,-2.07415384155613e-05
1.728,-2.28682050822274e-05
1.729,-2.5061538415562e-05
1.73,-2.72548717488895e-05
1.731,-2.95182050822239e-05
1.732,-3.18515384155581e-05
1.733,-3.42515384155609e-05
1.734,-3.66515384155565e-05
1.735,-3.91882050822276e-05
1.736,-4.17948717488914e-05
1.737,-4.44015384155622e-05
1.738,-4.72115384155558e-05
1.739,-5.00248717488948e-05
1.74,-5.29715384155567e-05
1.741,-5.59915384155567e-05
1.742,-5.91448717488938e-05
1.743,-6.22982050822239e-05
1.744,-6.55915384155606e-05
1.745,-6.89515384155587e-05
1.746,-7.24482050822252e-05
1.747,-7.5948205082223e-05
1.748,-7.95815384155578e-05
1.749,-8.32848717488924e-05
1.75,-8.70548717488956e-05
1.751,-9.08982050822228e-05
1.752,-9.4874871748894e-05
1.753,-9.88515384155582e-05
1.754,-0.000102964871748891
1.755,-0.000107148205082223
1.756,-0.000111331538415555
1.757,-0.000115654871748894
1.758,-0.000119974871748895
1.759,-0.000124361538415557
1.76,-0.000128821538415558
1.761,-0.000133344871748895
1.762,-0.000137874871748895
1.763,-0.000142534871748894
1.764,-0.000147198205082224
1.765,-0.000151931538415561
1.766,-0.000156731538415559
1.767,-0.000161531538415558
1.768,-0.000166471538415556
1.769,-0.000171408205082222
1.77,-0.000176414871748889
1.771,-0.000181421538415555
1.772,-0.00018649487174889
1.773,-0.000191638205082225
1.774,-0.00019678153841556
1.775,-0.000201994871748895
1.776,-0.000207274871748891
1.777,-0.000212621538415555
1.778,-0.000217971538415558
1.779,-0.000223391538415561
1.78,-0.000228808205082226
1.781,-0.00023429487174889
1.782,-0.000239848205082223
1.783,-0.000245404871748894
1.784,-0.000251028205082226
1.785,-0.000256651538415559
1.786,-0.00026234153841556
1.787,-0.000268034871748892
1.788,-0.000273794871748893
1.789,-0.000279624871748894
1.79,-0.000285521538415556
1.791,-0.000291351538415557
1.792,-0.000297318205082226
1.793,-0.000303284871748895
1.794,-0.000309251538415557
1.795,-0.000315284871748894
1.796,-0.000321388205082225
1.797,-0.000327424871748893
1.798,-0.000333594871748892
1.799,-0.000339698205082223
1.8,-0.00034587153841556
1.801,-0.00035204487174889
1.802,-0.000358284871748895
1.803,-0.000364454871748894
1.804,-0.000370698205082224
1.805,-0.000376938205082223
1.806,-0.000383108205082229
1.807,-0.000389351538415559
1.808,-0.000395591538415557
1.809,-0.000401831538415556
1.81,-0.000408071538415561
1.811,-0.000414244871748891
1.812,-0.00042048487174889
1.813,-0.000426658205082227
1.814,-0.000432898205082226
1.815,-0.000439068205082225
1.816,-0.000445241538415562
1.817,-0.000451344871748892
1.818,-0.000457518205082222
1.819,-0.00046362153841556
1.82,-0.00046972487174889
1.821,-0.000475828205082227
1.822,-0.000481931538415557
1.823,-0.000488034871748895
1.824,-0.000494068205082225
1.825,-0.000500104871748894
1.826,-0.000506138205082225
1.827,-0.000512174871748893
1.828,-0.000518141538415555
1.829,-0.000524174871748893
1.83,-0.000530141538415562
1.831,-0.000536108205082224
1.832,-0.000542074871748893
1.833,-0.000548041538415562
1.834,-0.000554008205082224
1.835,-0.000559904871748893
1.836,-0.000565871538415562
1.837,-0.000571768205082224
1.838,-0.000577664871748893
1.839,-0.000583494871748894
1.84,-0.000589394871748895
1.841,-0.000595221538415557
1.842,-0.000601051538415558
1.843,-0.000606811538415559
1.844,-0.000612571538415559
1.845,-0.000618334871748892
1.846,-0.000624094871748893
1.847,-0.000629784871748894
1.848,-0.000635478205082226
1.849,-0.000641171538415558
1.85,-0.000646794871748891
1.851,-0.000652348205082224
1.852,-0.000657971538415556
1.853,-0.000663458205082228
1.854,-0.000669014871748892
1.855,-0.000674498205082225
1.856,-0.000679918205082227
1.857,-0.000685334871748892
1.858,-0.000690751538415556
1.859,-0.000696101538415559
1.86,-0.000701451538415562
1.861,-0.000706801538415558
1.862,-0.000712081538415561
1.863,-0.000717291538415557
1.864,-0.000722571538415561
1.865,-0.000727714871748896
1.866,-0.000732861538415562
1.867,-0.00073800487174889
1.868,-0.000743078205082225
1.869,-0.000748084871748891
1.87,-0.000753091538415557
1.871,-0.000758028205082224
1.872,-0.000762898205082222
1.873,-0.000767764871748889
1.874,-0.000772568205082226
1.875,-0.000777298205082225
1.876,-0.000782031538415562
1.877,-0.000786694871748892
1.878,-0.000791358205082229
1.879,-0.000795881538415559
1.88,-0.000800478205082228
1.881,-0.00080493487174889
1.882,-0.000809461538415559
1.883,-0.000813851538415559
1.884,-0.000818241538415559
1.885,-0.00082256153841556
1.886,-0.000826881538415561
1.887,-0.000831201538415561
1.888,-0.000835384871748894
1.889,-0.000839634871748895
1.89,-0.000843751538415558
1.891,-0.000847934871748891
1.892,-0.000851981538415562
1.893,-0.000856094871748894
1.894,-0.000860071538415559
1.895,-0.000864051538415561
1.896,-0.000867958205082226
1.897,-0.000871868205082228
1.898,-0.000875638205082224
1.899,-0.000879411538415559
1.9,-0.000883114871748894
1.901,-0.00088668153841556
1.902,-0.000890248205082226
1.903,-0.000893744871748893
1.904,-0.000897241538415559
1.905,-0.000900601538415557
1.906,-0.000903961538415555
1.907,-0.000907184871748892
1.908,-0.000910408205082222
1.909,-0.000913631538415559
1.91,-0.000916718205082228
1.911,-0.000919734871748889
1.912,-0.00092268487174889
1.913,-0.00092556487174889
1.914,-0.00092844487174889
1.915,-0.000931258205082222
1.916,-0.000934001538415562
1.917,-0.000936674871748894
1.918,-0.000939281538415558
1.919,-0.000941888205082229
1.92,-0.000944424871748892
1.921,-0.000946891538415557
1.922,-0.000949361538415559
1.923,-0.000951691538415562
1.924,-0.000954024871748889
1.925,-0.000956288205082224
1.926,-0.000958481538415558
1.927,-0.000960608205082224
1.928,-0.000962664871748891
1.929,-0.000964724871748895
1.93,-0.000966781538415561
1.931,-0.000968768205082228
1.932,-0.000970688205082226
1.933,-0.000972611538415562
1.934,-0.00097446153841556
1.935,-0.000976311538415558
1.936,-0.000978094871748895
1.937,-0.000979811538415556
1.938,-0.000981524871748893
1.939,-0.000983238205082223
1.94,-0.000984954871748891
1.941,-0.000986598205082228
1.942,-0.00098824487174889
1.943,-0.000989891538415558
1.944,-0.000991468205082226
1.945,-0.000993114871748895
1.946,-0.000994691538415556
1.947,-0.000996268205082225
1.948,-0.000997778205082225
1.949,-0.000999288205082225
1.95,-0.00100079487174889
1.951,-0.00100223487174889
1.952,-0.00100360820508223
1.953,-0.00100504820508223
1.954,-0.00100641820508223
1.955,-0.00100779153841556
1.956,-0.00100916153841556
1.957,-0.00101046487174889
1.958,-0.00101176820508222
1.959,-0.00101307153841556
1.96,-0.00101437487174889
1.961,-0.00101567820508222
1.962,-0.00101691153841556
1.963,-0.00101821487174889
1.964,-0.00101944820508223
1.965,-0.00102068487174889
1.966,-0.00102191820508222
1.967,-0.00102315153841556
1.968,-0.00102438487174889
1.969,-0.00102562153841556
1.97,-0.00102685487174889
1.971,-0.00102802153841556
1.972,-0.00102925487174889
1.973,-0.00103048820508222
1.974,-0.0010317248717489
1.975,-0.00103289153841556
1.976,-0.00103412487174889
1.977,-0.00103535820508222
1.978,-0.00103659487174889
1.979,-0.00103782820508223
1.98,-0.00103906153841556
1.981,-0.00104029820508223
1.982,-0.00104153153841556
1.983,-0.00104276487174889
1.984,-0.00104400153841556
1.985,-0.00104523487174889
1.986,-0.00104640153841556
1.987,-0.00104763487174889
1.988,-0.00104886820508222
1.989,-0.00105010487174889
1.99,-0.00105126820508223
1.991,-0.00105250487174889
1.992,-0.00105373820508223
1.993,-0.00105490487174889
1.994,-0.00105606820508222
1.995,-0.00105723487174889
1.996,-0.00105847153841556
1.997,-0.00105963487174889
1.998,-0.00106080153841556
1.999,-0.00106196820508222
2,-0.00106313153841556
2.001,-0.00106429820508223
2.002,-0.00106546487174889
2.003,-0.00106663153841556
2.004,-0.00106779487174889
2.005,-0.00106896153841556
2.006,-0.00107012820508223
2.007,-0.00107122487174889
2.008,-0.00107239153841556
2.009,-0.00107355153841556
2.01,-0.00107472487174889
2.011,-0.00107588820508223
2.012,-0.00107705153841556
2.013,-0.00107822487174889
2.014,-0.00107938820508223
2.015,-0.00108054820508223
2.016,-0.00108164820508222
2.017,-0.00108281153841556
2.018,-0.0010839848717489
2.019,-0.00108508153841556
2.02,-0.00108617153841556
2.021,-0.00108726820508222
2.022,-0.00108830487174889
2.023,-0.00108940153841556
2.024,-0.00109042820508222
2.025,-0.00109146153841556
2.026,-0.00109248487174889
2.027,-0.00109350820508222
2.028,-0.00109446820508222
2.029,-0.00109542820508223
2.03,-0.00109632487174889
2.031,-0.0010972848717489
2.032,-0.00109810820508222
2.033,-0.00109900153841556
2.034,-0.00109982487174889
2.035,-0.00110064487174889
2.036,-0.00110146820508223
2.037,-0.00110222487174889
2.038,-0.00110298153841556
2.039,-0.00110366487174889
2.04,-0.00110434820508223
2.041,-0.00110496487174889
2.042,-0.00110552153841556
2.043,-0.00110606487174889
2.044,-0.00110648153841556
2.045,-0.00110688487174889
2.046,-0.00110722820508223
2.047,-0.00110750487174889
2.048,-0.00110764153841556
2.049,-0.00110770820508223
2.05,-0.00110770820508223
2.051,-0.00110756820508223
2.052,-0.00110730153841556
2.053,-0.00110696153841556
2.054,-0.00110640487174889
2.055,-0.00110572153841556
2.056,-0.00110490153841556
2.057,-0.00110386820508222
2.058,-0.00110270487174889
2.059,-0.00110132820508223
2.06,-0.00109968487174889
2.061,-0.00109782820508222
2.062,-0.00109578153841556
2.063,-0.00109344487174889
2.064,-0.00109076820508223
2.065,-0.00108788820508223
2.066,-0.00108460153841556
2.067,-0.00108102820508223
2.068,-0.00107705153841556
2.069,-0.00107273153841556
2.07,-0.00106800153841556
2.071,-0.00106279153841556
2.072,-0.00105716820508223
2.073,-0.0010510648717489
2.074,-0.00104441153841556
2.075,-0.00103721153841556
2.076,-0.00102952820508222
2.077,-0.00102123153841556
2.078,-0.00101231820508223
2.079,-0.00100285487174889
2.08,-0.000992771538415558
2.081,-0.000982074871748891
2.082,-0.000970758205082226
2.083,-0.000958688205082226
2.084,-0.000946001538415561
2.085,-0.000932628205082223
2.086,-0.000918568205082226
2.087,-0.000903824871748894
2.088,-0.000888464871748889
2.089,-0.000872348205082226
2.09,-0.000855548205082228
2.091,-0.000838128205082226
2.092,-0.000820021538415558
2.093,-0.000801231538415562
2.094,-0.000781824871748893
2.095,-0.000761731538415559
2.096,-0.000741021538415558
2.097,-0.00071976153841556
2.098,-0.000697814871748889
2.099,-0.000675391538415559
2.1,-0.000652348205082224
2.101,-0.000628758205082223
2.102,-0.000604684871748892
2.103,-0.000580134871748889
2.104,-0.000555104871748895
2.105,-0.000529591538415557
2.106,-0.000503738205082229
2.107,-0.000477404871748889
2.108,-0.000450794871748895
2.109,-0.000423774871748896
2.11,-0.00039648153841556
2.111,-0.000368914871748895
2.112,-0.000341001538415561
2.113,-0.000312884871748892
2.114,-0.000284561538415561
2.115,-0.000256034871748893
2.116,-0.000227368205082225
2.117,-0.00019849487174889
2.118,-0.000169488205082224
2.119,-0.000140408205082228
2.12,-0.000111194871748894
2.121,-8.19815384155605e-05
2.122,-5.26282050822273e-05
2.123,-2.32782050822253e-05
2.124,6.07179491777664e-06
2.125,3.55617949177712e-05
2.126,6.49817949177729e-05
2.127,9.44017949177747e-05
2.128,0.000123821794917776
2.129,0.00015317512825111
2.13,0.000182525128251105
2.131,0.000211808461584438
2.132,0.00024095512825111
2.133,0.000270098461584444
2.134,0.000299108461584441
2.135,0.000328048461584438
2.136,0.000356785128251105
2.137,0.000385448461584441
2.138,0.00041397846158444
2.139,0.00044236846158444
2.14,0.000470625128251109
2.141,0.000498671794917772
2.142,0.000526515128251106
2.143,0.000554151794917778
2.144,0.000581651794917774
2.145,0.000608878461584442
2.146,0.000635898461584441
2.147,0.000662711794917772
2.148,0.000689251794917773
2.149,0.000715518461584445
2.15,0.000741578461584441
2.151,0.000767361794917777
2.152,0.000792941794917776
2.153,0.000818178461584438
2.154,0.000843141794917778
2.155,0.000867831794917774
2.156,0.00089217512825111
2.157,0.00091624846158444
2.158,0.000940045128251109
2.159,0.000963498461584441
2.16,0.000986608461584438
2.161,0.0010094451282511
2.162,0.00103193846158444
2.163,0.00105408846158444
2.164,0.00107589846158444
2.165,0.00109735846158444
2.166,0.00111847846158444
2.167,0.00113919512825111
2.168,0.00115963179491777
2.169,0.00117965179491777
2.17,0.00119926846158444
2.171,0.00121854512825111
2.172,0.00123740179491777
2.173,0.00125591846158444
2.174,0.00127402179491778
2.175,0.00129171846158444
2.176,0.00130899846158444
2.177,0.00132593512825111
2.178,0.00134245846158444
2.179,0.00135851179491777
2.18,0.00137421179491777
2.181,0.00138943512825111
2.182,0.00140425179491777
2.183,0.00141865179491778
2.184,0.00143257179491777
2.185,0.00144614846158444
2.186,0.00145918512825111
2.187,0.00147186512825111
2.188,0.00148400512825111
2.189,0.00149580179491778
2.19,0.00150704512825111
2.191,0.00151795846158444
2.192,0.00152837846158444
2.193,0.00153831846158444
2.194,0.00154785512825111
2.195,0.00155691179491778
2.196,0.00156555179491777
2.197,0.00157371179491778
2.198,0.00158153179491777
2.199,0.00158879512825111
2.2,0.00159571846158444
2.201,0.00160217179491778
2.202,0.00160820846158444
2.203,0.00161382846158444
2.204,0.00161903512825111
2.205,0.00162390846158444
2.206,0.00162836846158444
2.207,0.00163241179491777
2.208,0.00163604846158444
2.209,0.00163933179491777
2.21,0.00164221179491778
2.211,0.00164475179491778
2.212,0.00164688512825111
2.213,0.00164866512825111
2.214,0.0016501051282511
2.215,0.00165120512825111
2.216,0.00165188846158444
2.217,0.00165230512825111
2.218,0.00165230512825111
2.219,0.00165202512825111
2.22,0.00165140846158444
2.221,0.00165044846158444
2.222,0.00164914512825111
2.223,0.00164756846158444
2.224,0.00164564846158444
2.225,0.00164338512825111
2.226,0.00164084846158444
2.227,0.00163796846158444
2.228,0.00163481179491778
2.229,0.00163138512825111
2.23,0.00162761179491777
2.231,0.00162356846158444
2.232,0.00161931179491777
2.233,0.00161471512825111
2.234,0.00160991512825111
2.235,0.00160484846158444
2.236,0.00159956846158444
2.237,0.00159407512825111
2.238,0.00158838846158444
2.239,0.00158241512825111
2.24,0.00157631512825111
2.241,0.00157001179491777
2.242,0.00156349179491777
2.243,0.00155683846158444
2.244,0.00155005179491778
2.245,0.00154305512825111
2.246,0.00153591846158444
2.247,0.00152865512825111
2.248,0.00152124179491778
2.249,0.00151370179491778
2.25,0.00150608512825111
2.251,0.00149827846158444
2.252,0.00149038512825111
2.253,0.00148236179491778
2.254,0.00147420179491777
2.255,0.00146596846158444
2.256,0.00145760512825111
2.257,0.00144916846158444
2.258,0.00144060179491777
2.259,0.00143195179491778
2.26,0.00142324846158444
2.261,0.00141446846158444
2.262,0.00140555179491777
2.263,0.00139657179491777
2.264,0.00138751512825111
2.265,0.00137839512825111
2.266,0.00136921179491778
2.267,0.00135995179491777
2.268,0.00135061846158444
2.269,0.00134123179491778
2.27,0.00133183512825111
2.271,0.00132237179491777
2.272,0.00131290179491778
2.273,0.00130343846158444
2.274,0.0012939051282511
2.275,0.00128430512825111
2.276,0.00127470512825111
2.277,0.00126510512825111
2.278,0.00125550512825111
2.279,0.00124583846158444
2.28,0.00123622846158444
2.281,0.00122656512825111
2.282,0.00121696512825111
2.283,0.00120729179491777
2.284,0.00119769179491777
2.285,0.00118809179491777
2.286,0.00117842512825111
2.287,0.00116882512825111
2.288,0.00115921512825111
2.289,0.00114961512825111
2.29,0.00114001512825111
2.291,0.00113035179491777
2.292,0.00112067846158444
2.293,0.00111101179491777
2.294,0.00110119846158444
2.295,0.00109146179491777
2.296,0.00108159512825111
2.297,0.00107171846158444
2.298,0.00106176512825111
2.299,0.00105175846158444
2.3,0.00104167512825111
2.301,0.00103159512825111
2.302,0.00102137846158444
2.303,0.00101109179491777
2.304,0.00100073512825111
2.305,0.000990241794917773
2.306,0.000979751794917773
2.307,0.000969121794917774
2.308,0.000958421794917775
2.309,0.000947655128251108
2.31,0.000936818461584441
2.311,0.000925915128251105
2.312,0.000914945128251108
2.313,0.000903835128251111
2.314,0.000892725128251107
2.315,0.00088161512825111
2.316,0.000870368461584438
2.317,0.000859121794917773
2.318,0.000847805128251108
2.319,0.000836421794917774
2.32,0.000824968461584441
2.321,0.000813515128251108
2.322,0.000801995128251106
2.323,0.000790405128251105
2.324,0.00077881512825111
2.325,0.000767225128251108
2.326,0.000755568461584439
2.327,0.000743908461584444
2.328,0.000732181794917774
2.329,0.000720455128251111
2.33,0.000708728461584441
2.331,0.000696931794917772
2.332,0.000685205128251109
2.333,0.000673408461584439
2.334,0.000661681794917776
2.335,0.000649888461584438
2.336,0.000638161794917775
2.337,0.000626435128251105
2.338,0.000614638461584442
2.339,0.000602911794917773
2.34,0.00059118512825111
2.341,0.000579525128251108
2.342,0.000567868461584438
2.343,0.000556208461584444
2.344,0.000544618461584442
2.345,0.000533098461584441
2.346,0.000521578461584439
2.347,0.000510125128251106
2.348,0.000498671794917772
2.349,0.000487355128251107
2.35,0.000476041794917774
2.351,0.000464865128251108
2.352,0.000453685128251105
2.353,0.000442645128251108
2.354,0.000431738461584441
2.355,0.000420835128251105
2.356,0.000410138461584444
2.357,0.000399508461584438
2.358,0.000389015128251108
2.359,0.000378591794917777
2.36,0.000368305128251107
2.361,0.000358155128251106
2.362,0.000348141794917773
2.363,0.000338198461584439
2.364,0.000328461794917774
2.365,0.000318791794917778
2.366,0.000309328461584442
2.367,0.000299931794917775
2.368,0.000290741794917776
2.369,0.000281621794917777
2.37,0.000272705128251108
2.371,0.000263928461584438
2.372,0.000255288461584444
2.373,0.000246785128251111
2.374,0.000238485128251108
2.375,0.000230325128251111
2.376,0.000222301794917776
2.377,0.000214481794917777
2.378,0.000206801794917772
2.379,0.000199258461584441
2.38,0.000191921794917772
2.381,0.000184788461584439
2.382,0.000177861794917775
2.383,0.00017100512825111
2.384,0.000164421794917775
2.385,0.000157975128251108
2.386,0.00015173512825111
2.387,0.000145631794917772
2.388,0.00013966512825111
2.389,0.000133905128251109
2.39,0.000128348461584438
2.391,0.000122861794917774
2.392,0.000117581794917778
2.393,0.000112438461584443
2.394,0.000107501794917776
2.395,0.000102631794917771
2.396,9.78984615844412e-05
2.397,9.33751282511108e-05
2.398,8.89851282511103e-05
2.399,8.47317949177711e-05
2.4,8.05484615844387e-05
2.401,7.65717949177745e-05
2.402,7.27317949177716e-05
2.403,6.9028461584444e-05
2.404,6.53951282511092e-05
2.405,6.19651282511112e-05
2.406,5.8605128251106e-05
2.407,5.53817949177762e-05
2.408,5.22951282511076e-05
2.409,4.93451282511073e-05
2.41,4.65351282511067e-05
2.411,4.38584615844431e-05
2.412,4.13217949177721e-05
2.413,3.88551282511079e-05
2.414,3.65917949177735e-05
2.415,3.43284615844391e-05
2.416,3.22717949177728e-05
2.417,3.02817949177751e-05
2.418,2.83617949177771e-05
2.419,2.65784615844404e-05
2.42,2.48651282511106e-05
2.421,2.32184615844423e-05
2.422,2.17084615844422e-05
2.423,2.0268461584442e-05
2.424,1.89651282511101e-05
2.425,1.7731794917778e-05
2.426,1.65651282511074e-05
2.427,1.54684615844436e-05
2.428,1.45084615844411e-05
2.429,1.36184615844385e-05
2.43,1.27951282511113e-05
2.431,1.20384615844386e-05
2.432,1.14217949177726e-05
2.433,1.08051282511065e-05
2.434,1.01884615844405e-05
2.435,9.70846158444276e-06
2.436,9.22846158443798e-06
2.437,8.81512825110876e-06
2.438,8.40512825111086e-06
2.439,8.13179491777421e-06
2.44,7.78846158443775e-06
2.441,7.58179491777668e-06
2.442,7.37512825110854e-06
2.443,7.17179491777171e-06
2.444,6.96512825111063e-06
2.445,6.82846158444231e-06
2.446,6.69179491777399e-06
2.447,6.48512825110586e-06
2.448,6.34846158444459e-06
2.449,6.21179491777627e-06
2.45,6.00512825110814e-06
2.451,5.79846158444e-06
2.452,5.66179491777168e-06
2.453,5.4551282511106e-06
2.454,5.18179491777396e-06
2.455,4.97512825110582e-06
2.456,4.70179491777624e-06
2.457,4.42846158443959e-06
2.458,4.08512825111019e-06
2.459,3.74179491777373e-06
2.46,3.39846158444434e-06
2.461,3.05512825110788e-06
2.462,2.64512825110997e-06
2.463,2.16512825110519e-06
2.464,1.75179491777598e-06
2.465,1.20512825110975e-06
2.466,6.55128251105157e-07
2.467,3.84615844391141e-08
2.468,-5.78205082226928e-07
2.469,-1.26487174889279e-06
2.47,-2.01820508222715e-06
2.471,-2.77487174889282e-06
2.472,-3.59487174888863e-06
2.473,-4.48820508222263e-06
2.474,-5.37820508222531e-06
2.475,-6.40820508222763e-06
2.476,-7.36820508222307e-06
2.477,-8.53487174889371e-06
2.478,-9.69820508222598e-06
2.479,-1.10015384155579e-05
2.48,-1.23048717488898e-05
2.481,-1.374487174889e-05
2.482,-1.525487174889e-05
2.483,-1.68315384155586e-05
2.484,-1.84782050822269e-05
2.485,-2.01915384155567e-05
2.486,-2.20448717488932e-05
2.487,-2.38948717488914e-05
2.488,-2.58848717488891e-05
2.489,-2.78715384155556e-05
2.49,-2.99982050822287e-05
2.491,-3.21948717488946e-05
2.492,-3.43882050822221e-05
2.493,-3.6718205082225e-05
2.494,-3.90515384155592e-05
2.495,-4.15215384155618e-05
2.496,-4.39882050822259e-05
2.497,-4.65248717488899e-05
2.498,-4.91315384155608e-05
2.499,-5.18082050822244e-05
2.5,-5.45515384155565e-05
2.501,-5.73615384155571e-05
2.502,-6.02415384155576e-05
2.503,-6.3121538415558e-05
2.504,-6.61382050822268e-05
2.505,-6.92248717488954e-05
2.506,-7.23115384155569e-05
2.507,-7.55348717488938e-05
2.508,-7.88282050822235e-05
2.509,-8.21882050822287e-05
2.51,-8.55482050822268e-05
2.511,-8.90448717488933e-05
2.512,-9.26115384155596e-05
2.513,-9.62448717488944e-05
2.514,-9.9948205082222e-05
2.515,-0.000103721538415556
2.516,-0.000107561538415559
2.517,-0.000111471538415562
2.518,-0.000115448205082226
2.519,-0.00011949487174889
2.52,-0.000123608205082223
2.521,-0.000127861538415562
2.522,-0.000132111538415556
2.523,-0.000136431538415557
2.524,-0.000140821538415557
2.525,-0.000145278205082226
2.526,-0.000149804871748895
2.527,-0.000154401538415556
2.528,-0.000158994871748894
2.529,-0.000163728205082224
2.53,-0.000168458205082222
2.531,-0.000173258205082228
2.532,-0.000178061538415557
2.533,-0.000182998205082224
2.534,-0.00018800487174889
2.535,-0.000193011538415557
2.536,-0.000198084871748892
2.537,-0.000203158205082227
2.538,-0.000208301538415562
2.539,-0.000213514871748889
2.54,-0.000218794871748893
2.541,-0.000224144871748896
2.542,-0.000229494871748892
2.543,-0.000234911538415556
2.544,-0.000240398205082227
2.545,-0.00024595153841556
2.546,-0.000251574871748893
2.547,-0.000257198205082225
2.548,-0.000262891538415558
2.549,-0.00026858487174889
2.55,-0.000274344871748891
2.551,-0.00028017153841556
2.552,-0.000285934871748892
2.553,-0.000291831538415562
2.554,-0.000297661538415562
2.555,-0.000303558205082224
2.556,-0.000309454871748894
2.557,-0.000315354871748894
2.558,-0.000321251538415556
2.559,-0.000327148205082225
2.56,-0.000333114871748895
2.561,-0.000339014871748895
2.562,-0.000344911538415557
2.563,-0.000350878205082226
2.564,-0.000356774871748895
2.565,-0.000362674871748889
2.566,-0.000368638205082227
2.567,-0.000374604871748896
2.568,-0.000380571538415558
2.569,-0.000386538205082227
2.57,-0.000392504871748896
2.571,-0.000398541538415557
2.572,-0.000404574871748895
2.573,-0.000410678205082225
2.574,-0.000416711538415556
2.575,-0.000422814871748893
2.576,-0.000428988205082223
2.577,-0.00043509153841556
2.578,-0.000441264871748891
2.579,-0.000447434871748889
2.58,-0.000453538205082227
2.581,-0.000459711538415557
2.582,-0.000465814871748894
2.583,-0.000471988205082224
2.584,-0.000478091538415562
2.585,-0.000484194871748892
2.586,-0.000490228205082222
2.587,-0.000496264871748891
2.588,-0.000502368205082228
2.589,-0.000508401538415559
2.59,-0.000514368205082228
2.591,-0.00052040487174889
2.592,-0.000526371538415559
2.593,-0.000532334871748889
2.594,-0.000538301538415558
2.595,-0.000544268205082227
2.596,-0.000550168205082228
2.597,-0.00055606487174889
2.598,-0.000561961538415559
2.599,-0.000567858205082229
2.6,-0.000573758205082222
2.601,-0.000579584871748891
2.602,-0.000585414871748892
2.603,-0.000591244871748893
2.604,-0.000597074871748894
2.605,-0.000602904871748894
2.606,-0.000608664871748895
2.607,-0.000614424871748889
2.608,-0.00062011487174889
2.609,-0.000625808205082222
2.61,-0.000631431538415562
2.611,-0.000636988205082226
2.612,-0.000642541538415559
2.613,-0.000648094871748891
2.614,-0.000653514871748894
2.615,-0.000659001538415559
2.616,-0.000664418205082223
2.617,-0.000669768205082226
2.618,-0.00067518487174889
2.619,-0.000680534871748893
2.62,-0.00068581487174889
2.621,-0.000691164871748892
2.622,-0.000696444871748896
2.623,-0.000701794871748891
2.624,-0.000707074871748895
2.625,-0.000712284871748891
2.626,-0.000717498205082226
2.627,-0.000722708205082229
2.628,-0.000727921538415557
2.629,-0.000733064871748891
2.63,-0.000738141538415558
2.631,-0.000743214871748893
2.632,-0.000748288205082228
2.633,-0.000753294871748894
2.634,-0.000758234871748892
2.635,-0.000763171538415559
2.636,-0.000768108205082226
2.637,-0.000772978205082224
2.638,-0.000777778205082222
2.639,-0.000782578205082228
2.64,-0.000787311538415558
2.641,-0.000791974871748895
2.642,-0.000796568205082225
2.643,-0.000801164871748894
2.644,-0.000805688205082224
2.645,-0.000810148205082224
2.646,-0.000814604871748893
2.647,-0.000818994871748894
2.648,-0.000823314871748894
2.649,-0.000827634871748895
2.65,-0.000831818205082227
2.651,-0.00083600153841556
2.652,-0.000840114871748892
2.653,-0.000844161538415556
2.654,-0.000848208205082227
2.655,-0.000852118205082223
2.656,-0.000855958205082226
2.657,-0.000859798205082222
2.658,-0.000863501538415557
2.659,-0.000867204871748891
2.66,-0.000870838205082226
2.661,-0.000874404871748892
2.662,-0.000877901538415559
2.663,-0.000881331538415557
2.664,-0.000884761538415562
2.665,-0.00088805153841556
2.666,-0.00089141487174889
2.667,-0.000894704871748895
2.668,-0.000897928205082225
2.669,-0.000901151538415562
2.67,-0.000904304871748892
2.671,-0.00090739153841556
2.672,-0.000910544871748891
2.673,-0.000913631538415559
2.674,-0.000916648205082228
2.675,-0.000919734871748889
2.676,-0.000922754871748889
2.677,-0.000925701538415558
2.678,-0.000928651538415559
2.679,-0.000931601538415559
2.68,-0.000934481538415559
2.681,-0.00093736153841556
2.682,-0.000940104871748892
2.683,-0.000942914871748893
2.684,-0.000945588205082225
2.685,-0.000948264871748895
2.686,-0.000950871538415559
2.687,-0.000953474871748892
2.688,-0.000956014871748894
2.689,-0.000958481538415558
2.69,-0.000960951538415561
2.691,-0.000963351538415556
2.692,-0.000965684871748891
2.693,-0.000968014871748894
2.694,-0.000970278205082228
2.695,-0.000972541538415555
2.696,-0.000974668205082228
2.697,-0.000976861538415556
2.698,-0.000978918205082222
2.699,-0.000980974871748896
2.7,-0.000983034871748893
2.701,-0.00098502153841556
2.702,-0.000987011538415557
2.703,-0.000988998205082224
2.704,-0.00099092153841556
2.705,-0.000992841538415558
2.706,-0.000994691538415556
2.707,-0.000996474871748893
2.708,-0.000998258205082222
2.709,-0.000999971538415559
2.71,-0.00100161820508223
2.711,-0.00100326487174889
2.712,-0.00100484153841556
2.713,-0.00100628153841556
2.714,-0.00100779153841556
2.715,-0.00100916153841556
2.716,-0.00101060153841556
2.717,-0.00101190487174889
2.718,-0.00101320820508222
2.719,-0.00101444153841556
2.72,-0.00101567820508222
2.721,-0.00101684153841556
2.722,-0.00101800820508223
2.723,-0.00101910487174889
2.724,-0.00102020153841556
2.725,-0.00102123153841556
2.726,-0.00102219153841556
2.727,-0.00102322153841556
2.728,-0.00102418153841556
2.729,-0.00102507153841556
2.73,-0.00102603153841556
2.731,-0.00102692487174889
2.732,-0.00102781487174889
2.733,-0.00102870820508223
2.734,-0.00102952820508222
2.735,-0.00103035487174889
2.736,-0.00103117487174889
2.737,-0.00103199820508222
2.738,-0.00103275487174889
2.739,-0.00103350820508222
2.74,-0.00103419487174889
2.741,-0.00103494820508223
2.742,-0.00103556487174889
2.743,-0.00103625153841556
2.744,-0.00103686820508222
2.745,-0.00103748487174889
2.746,-0.00103803487174889
2.747,-0.00103858153841556
2.748,-0.00103913153841556
2.749,-0.00103968153841556
2.75,-0.00104022820508223
2.751,-0.00104077820508223
2.752,-0.00104125820508222
2.753,-0.00104180487174889
2.754,-0.00104228487174889
2.755,-0.00104276487174889
2.756,-0.00104324487174889
2.757,-0.00104365820508223
2.758,-0.00104413820508222
2.759,-0.00104454820508222
2.76,-0.00104502820508223
2.761,-0.00104544153841556
2.762,-0.00104592153841556
2.763,-0.00104633153841556
2.764,-0.00104674487174889
2.765,-0.00104722487174889
2.766,-0.00104763487174889
2.767,-0.0010481148717489
2.768,-0.00104859487174889
2.769,-0.00104907487174889
2.77,-0.0010496248717489
2.771,-0.00105017153841556
2.772,-0.00105072153841556
2.773,-0.00105133820508223
2.774,-0.00105188820508222
2.775,-0.00105257153841556
2.776,-0.00105318820508222
2.777,-0.00105380820508223
2.778,-0.00105449153841556
2.779,-0.00105517820508223
2.78,-0.00105586487174889
2.781,-0.00105661820508223
2.782,-0.00105737153841556
2.783,-0.00105805820508223
2.784,-0.00105881153841556
2.785,-0.00105963487174889
2.786,-0.00106039153841556
2.787,-0.00106114487174889
2.788,-0.00106196820508222
2.789,-0.00106272153841556
2.79,-0.00106347487174889
2.791,-0.00106423153841556
2.792,-0.00106505487174889
2.793,-0.00106580820508223
2.794,-0.00106656153841556
2.795,-0.00106738487174889
2.796,-0.00106820820508222
2.797,-0.00106903153841556
2.798,-0.00106985487174889
2.799,-0.00107067820508223
2.8,-0.00107156820508223
2.801,-0.00107239153841556
2.802,-0.00107328487174889
2.803,-0.00107417153841556
2.804,-0.00107506820508223
2.805,-0.00107588820508223
2.806,-0.00107678487174889
2.807,-0.00107766820508223
2.808,-0.00107856487174889
2.809,-0.00107938820508223
2.81,-0.00108028153841556
2.811,-0.00108110487174889
2.812,-0.00108192487174889
2.813,-0.00108274820508222
2.814,-0.00108350487174889
2.815,-0.00108425153841556
2.816,-0.00108494487174889
2.817,-0.00108562820508223
2.818,-0.00108630820508223
2.819,-0.00108692820508223
2.82,-0.00108754820508222
2.821,-0.00108809153841556
2.822,-0.00108857153841556
2.823,-0.00108905153841556
2.824,-0.00108946820508223
2.825,-0.00108980820508223
2.826,-0.00109008487174889
2.827,-0.00109036153841556
2.828,-0.00109056487174889
2.829,-0.00109070487174889
2.83,-0.00109076820508223
2.831,-0.00109070487174889
2.832,-0.00109062820508222
2.833,-0.00109042820508222
2.834,-0.00109014820508222
2.835,-0.00108974487174889
2.836,-0.00108918820508223
2.837,-0.00108857153841556
2.838,-0.00108774820508223
2.839,-0.00108678820508223
2.84,-0.00108569153841556
2.841,-0.00108432487174889
2.842,-0.00108274820508222
2.843,-0.0010809648717489
2.844,-0.00107890820508223
2.845,-0.00107657153841556
2.846,-0.00107396820508222
2.847,-0.00107102153841556
2.848,-0.00106779487174889
2.849,-0.00106416153841556
2.85,-0.00106018487174889
2.851,-0.00105579487174889
2.852,-0.00105099487174889
2.853,-0.00104571487174889
2.854,-0.00103995487174889
2.855,-0.00103371487174889
2.856,-0.00102692487174889
2.857,-0.00101958487174889
2.858,-0.00101169820508222
2.859,-0.00100319487174889
2.86,-0.000994141538415559
2.861,-0.000984474871748893
2.862,-0.000974188205082224
2.863,-0.000963284871748895
2.864,-0.000951691538415562
2.865,-0.000939484871748895
2.866,-0.000926661538415561
2.867,-0.000913084871748893
2.868,-0.000898888205082227
2.869,-0.000883938205082228
2.87,-0.000868371538415562
2.871,-0.000852118205082223
2.872,-0.000835178205082226
2.873,-0.000817554871748894
2.874,-0.000799244871748889
2.875,-0.000780248205082225
2.876,-0.000760701538415557
2.877,-0.000740471538415561
2.878,-0.000719624871748892
2.879,-0.000698158205082225
2.88,-0.000676144871748893
2.881,-0.000653514871748894
2.882,-0.000630404871748891
2.883,-0.00060667487174889
2.884,-0.000582468205082223
2.885,-0.000557778205082227
2.886,-0.000532611538415557
2.887,-0.000507031538415559
2.888,-0.000481038205082223
2.889,-0.000454638205082229
2.89,-0.000427891538415559
2.891,-0.00040087153841556
2.892,-0.000373508205082225
2.893,-0.00034587153841556
2.894,-0.000317958205082227
2.895,-0.000289841538415557
2.896,-0.000261521538415557
2.897,-0.000232991538415558
2.898,-0.00020439487174889
2.899,-0.000175591538415562
2.9,-0.000146718205082226
2.901,-0.000117711538415561
2.902,-8.87015384155569e-05
2.903,-5.95548717488917e-05
2.904,-3.04115384155579e-05
2.905,-1.33153841556129e-06
2.906,2.78117949177725e-05
2.907,5.69584615844447e-05
2.908,8.61051282511098e-05
2.909,0.000115111794917775
2.91,0.000144121794917772
2.911,0.000173061794917776
2.912,0.000201935128251105
2.913,0.00023073846158444
2.914,0.000259401794917777
2.915,0.000287998461584444
2.916,0.000316458461584443
2.917,0.000344711794917775
2.918,0.000372898461584444
2.919,0.000400878461584439
2.92,0.000428721794917772
2.921,0.000456428461584444
2.922,0.000483928461584441
2.923,0.000511221794917776
2.924,0.000538378461584444
2.925,0.000565331794917774
2.926,0.000592075128251105
2.927,0.000618615128251107
2.928,0.000644951794917771
2.929,0.000671008461584444
2.93,0.00069686512825111
2.931,0.000722511794917778
2.932,0.000747885128251108
2.933,0.000773055128251109
2.934,0.000797948461584442
2.935,0.000822568461584439
2.936,0.000846981794917774
2.937,0.000871121794917772
2.938,0.000894918461584442
2.939,0.000918508461584443
2.94,0.000941758461584439
2.941,0.000964731794917774
2.942,0.000987431794917772
2.943,0.00100978846158444
2.944,0.00103180179491777
2.945,0.00105347179491778
2.946,0.00107479846158444
2.947,0.00109578179491777
2.948,0.00111643179491778
2.949,0.00113665512825111
2.95,0.00115654846158444
2.951,0.00117609179491777
2.952,0.00119522512825111
2.953,0.00121394512825111
2.954,0.00123232512825111
2.955,0.00125022512825111
2.956,0.00126778179491778
2.957,0.00128492179491777
2.958,0.00130165846158444
2.959,0.00131797846158444
2.96,0.00133389179491778
2.961,0.00134939179491777
2.962,0.00136447512825111
2.963,0.00137915179491777
2.964,0.00139341179491778
2.965,0.00140726846158444
2.966,0.0014206451282511
2.967,0.00143366846158444
2.968,0.00144622512825111
2.969,0.00145836179491777
2.97,0.00147008512825111
2.971,0.00148140179491778
2.972,0.00149230512825111
2.973,0.00150272512825111
2.974,0.00151281512825111
2.975,0.00152241512825111
2.976,0.00153159846158444
2.977,0.00154037846158444
2.978,0.00154867846158444
2.979,0.00155655846158444
2.98,0.00156403846158444
2.981,0.00157103512825111
2.982,0.00157769179491777
2.983,0.00158385512825111
2.984,0.00158961512825111
2.985,0.00159497179491777
2.986,0.00159990846158444
2.987,0.00160443179491777
2.988,0.00160854846158444
2.989,0.00161225179491778
2.99,0.00161554512825111
2.991,0.00161835179491778
2.992,0.00162082512825111
2.993,0.00162287512825111
2.994,0.00162459179491777
2.995,0.00162589179491777
2.996,0.00162678846158444
2.997,0.00162733179491777
2.998,0.00162754512825111
2.999,0.00162733179491777
3,0.00162685179491778
3.001,0.00162596846158444
3.002,0.00162479512825111
3.003,0.00162335512825111
3.004,0.00162157179491777
3.005,0.00161945179491778
3.006,0.0016171151282511
3.007,0.00161444846158444
3.008,0.00161142846158444
3.009,0.00160820846158444
3.01,0.00160470846158444
3.011,0.00160093179491777
3.012,0.00159689179491777
3.013,0.00159263512825111
3.014,0.00158811179491778
3.015,0.00158331179491777
3.016,0.00157829846158444
3.017,0.00157301846158444
3.018,0.00156753512825111
3.019,0.00156183846158444
3.02,0.00155587846158444
3.021,0.00154970179491778
3.022,0.00154333179491777
3.023,0.00153667846158444
3.024,0.00152988179491778
3.025,0.00152282179491778
3.026,0.00151562179491778
3.027,0.00150821846158444
3.028,0.00150067846158444
3.029,0.00149292179491778
3.03,0.00148503846158444
3.031,0.00147700846158444
3.032,0.00146884846158444
3.033,0.00146054846158444
3.034,0.00145218512825111
3.035,0.00144368512825111
3.036,0.00143510846158444
3.037,0.00142640512825111
3.038,0.00141769179491777
3.039,0.00140884846158444
3.04,0.00139993179491777
3.041,0.00139101179491777
3.042,0.00138196846158444
3.043,0.00137291179491777
3.044,0.00136379179491778
3.045,0.00135459846158444
3.046,0.00134533846158444
3.047,0.00133607846158444
3.048,0.00132675846158444
3.049,0.00131735846158444
3.05,0.00130796179491778
3.051,0.00129850179491777
3.052,0.00128897512825111
3.053,0.00127943846158444
3.054,0.00126990512825111
3.055,0.00126023846158444
3.056,0.00125056512825111
3.057,0.00124090179491777
3.058,0.00123122512825111
3.059,0.00122148846158444
3.06,0.00121174846158444
3.061,0.00120201179491777
3.062,0.00119220846158444
3.063,0.00118239512825111
3.064,0.00117259179491778
3.065,0.00116278846158444
3.066,0.00115297512825111
3.067,0.00114317179491778
3.068,0.00113337179491777
3.069,0.00112355846158444
3.07,0.0011137551282511
3.071,0.00110394179491778
3.072,0.00109407512825111
3.073,0.00108426179491777
3.074,0.00107438512825111
3.075,0.00106451846158444
3.076,0.00105456846158444
3.077,0.00104462512825111
3.078,0.00103454512825111
3.079,0.00102453179491777
3.08,0.00101445179491777
3.081,0.00100430179491778
3.082,0.000994081794917776
3.083,0.000983795128251106
3.084,0.000973511794917775
3.085,0.000963155128251105
3.086,0.000952731794917774
3.087,0.000942168461584444
3.088,0.000931608461584444
3.089,0.000920978461584438
3.09,0.000910281794917778
3.091,0.000899511794917772
3.092,0.000888678461584443
3.093,0.000877775128251107
3.094,0.000866801794917772
3.095,0.000855761794917775
3.096,0.000844651794917778
3.097,0.000833471794917774
3.098,0.000822295128251109
3.099,0.000810978461584444
3.1,0.00079966512825111
3.101,0.000788278461584439
3.102,0.000776825128251105
3.103,0.000765305128251111
3.104,0.000753785128251109
3.105,0.000742195128251107
3.106,0.000730535128251106
3.107,0.000718878461584443
3.108,0.000707218461584441
3.109,0.000695561794917771
3.11,0.000683835128251108
3.111,0.000672108461584439
3.112,0.000660311794917776
3.113,0.000648585128251106
3.114,0.000636788461584443
3.115,0.000625061794917774
3.116,0.000613335128251111
3.117,0.000601608461584441
3.118,0.000589881794917778
3.119,0.000578291794917776
3.12,0.000566701794917775
3.121,0.000555111794917773
3.122,0.00054365846158444
3.123,0.000532275128251106
3.124,0.000520891794917773
3.125,0.000509645128251108
3.126,0.000498398461584443
3.127,0.000487288461584439
3.128,0.000476248461584442
3.129,0.000465345128251106
3.13,0.000454438461584439
3.131,0.000443741794917771
3.132,0.000433041794917773
3.133,0.000422551794917773
3.134,0.000412058461584442
3.135,0.000401771794917773
3.136,0.000391551794917772
3.137,0.000381405128251109
3.138,0.000371391794917775
3.139,0.000361515128251111
3.14,0.000351778461584439
3.141,0.000342108461584442
3.142,0.000332645128251107
3.143,0.000323318461584439
3.144,0.000314058461584441
3.145,0.00030500512825111
3.146,0.000296091794917772
3.147,0.00028731512825111
3.148,0.000278605128251108
3.149,0.000270098461584444
3.15,0.000261735128251111
3.151,0.000253571794917776
3.152,0.000245481794917772
3.153,0.000237595128251105
3.154,0.000229845128251106
3.155,0.000222231794917776
3.156,0.000214825128251107
3.157,0.000207558461584444
3.158,0.000200495128251104
3.159,0.00019349846158444
3.16,0.000186708461584444
3.161,0.000180125128251109
3.162,0.000173611794917774
3.163,0.000167301794917775
3.164,0.000161128461584438
3.165,0.000155161794917776
3.166,0.000149335128251107
3.167,0.000143641794917774
3.168,0.00013815512825111
3.169,0.000132805128251107
3.17,0.000127595128251111
3.171,0.000122588461584444
3.172,0.000117718461584439
3.173,0.000112988461584441
3.174,0.000108461794917772
3.175,0.000104071794917771
3.176,9.98184615844391e-05
3.177,9.57051282511066e-05
3.178,9.17951282511109e-05
3.179,8.80251282511078e-05
3.18,8.43884615844417e-05
3.181,8.08251282511067e-05
3.182,7.74651282511085e-05
3.183,7.41717949177718e-05
3.184,7.10851282511103e-05
3.185,6.80684615844415e-05
3.186,6.51884615844411e-05
3.187,6.2445128251109e-05
3.188,5.98384615844381e-05
3.189,5.73017949177741e-05
3.19,5.48317949177716e-05
3.191,5.25017949177757e-05
3.192,5.02384615844413e-05
3.193,4.81117949177753e-05
3.194,4.6055128251109e-05
3.195,4.40651282511112e-05
3.196,4.2215128251106e-05
3.197,4.04317949177764e-05
3.198,3.87151282511083e-05
3.199,3.71384615844397e-05
3.2,3.5631794917778e-05
3.201,3.41917949177778e-05
3.202,3.2818461584439e-05
3.203,3.1585128251107e-05
3.204,3.04184615844434e-05
3.205,2.93217949177726e-05
3.206,2.82917949177773e-05
3.207,2.74017949177746e-05
3.208,2.65084615844406e-05
3.209,2.57551282511063e-05
3.21,2.50017949177719e-05
3.211,2.43851282511059e-05
3.212,2.37651282511085e-05
3.213,2.32851282511108e-05
3.214,2.2805128251106e-05
3.215,2.23251282511083e-05
3.216,2.19151282511104e-05
3.217,2.15717949177739e-05
3.218,2.12284615844445e-05
3.219,2.09551282511079e-05
3.22,2.06817949177712e-05
3.221,2.04051282511103e-05
3.222,2.02017949177735e-05
3.223,1.99251282511056e-05
3.224,1.97217949177758e-05
3.225,1.95151282511077e-05
3.226,1.93084615844395e-05
3.227,1.91017949177714e-05
3.228,1.88984615844416e-05
3.229,1.86917949177735e-05
3.23,1.84851282511053e-05
3.231,1.82817949177756e-05
3.232,1.80751282511074e-05
3.233,1.78017949177779e-05
3.234,1.75951282511097e-05
3.235,1.73217949177731e-05
3.236,1.71151282511049e-05
3.237,1.6838461584444e-05
3.238,1.65651282511074e-05
3.239,1.62917949177778e-05
3.24,1.60184615844412e-05
3.241,1.56751282511047e-05
3.242,1.53317949177753e-05
3.243,1.4918461584439e-05
3.244,1.45084615844411e-05
3.245,1.40284615844434e-05
3.246,1.35484615844386e-05
3.247,1.29984615844411e-05
3.248,1.23817949177751e-05
3.249,1.16951282511092e-05
3.25,1.10117949177747e-05
3.251,1.0255128251109e-05
3.252,9.50179491777462e-06
3.253,8.67846158444044e-06
3.254,7.78846158443775e-06
3.255,6.89512825111082e-06
3.256,5.93512825110832e-06
3.257,4.90846158444437e-06
3.258,3.87846158444206e-06
3.259,2.71179491777142e-06
3.26,1.54846158443915e-06
3.261,3.11794917775757e-07
3.262,-9.91538415556142e-07
3.263,-2.36153841555655e-06
3.264,-3.73487174889532e-06
3.265,-5.17487174889554e-06
3.266,-6.6148717488887e-06
3.267,-8.12153841555743e-06
3.268,-9.76820508222579e-06
3.269,-1.14148717488941e-05
3.27,-1.3128205082224e-05
3.271,-1.49115384155606e-05
3.272,-1.67648717488901e-05
3.273,-1.86848717488951e-05
3.274,-2.06715384155615e-05
3.275,-2.27982050822276e-05
3.276,-2.49248717488937e-05
3.277,-2.71882050822281e-05
3.278,-2.95182050822239e-05
3.279,-3.19882050822265e-05
3.28,-3.45248717488904e-05
3.281,-3.71315384155613e-05
3.282,-3.98048717488936e-05
3.283,-4.25482050822257e-05
3.284,-4.54282050822262e-05
3.285,-4.83782050822264e-05
3.286,-5.13948717488952e-05
3.287,-5.45515384155565e-05
3.288,-5.77748717488934e-05
3.289,-6.10648717488918e-05
3.29,-6.44248717488899e-05
3.291,-6.7854871748895e-05
3.292,-7.13515384155615e-05
3.293,-7.49182050822278e-05
3.294,-7.85515384155555e-05
3.295,-8.22548717488901e-05
3.296,-8.60282050822246e-05
3.297,-8.98682050822275e-05
3.298,-9.37782050822232e-05
3.299,-9.77548717488945e-05
3.3,-0.000101801538415558
3.301,-0.000105848205082223
3.302,-0.000109961538415562
3.303,-0.000114144871748894
3.304,-0.000118398205082227
3.305,-0.000122718205082227
3.306,-0.000127038205082228
3.307,-0.00013142487174889
3.308,-0.00013588487174889
3.309,-0.000140341538415559
3.31,-0.000144938205082228
3.311,-0.000149531538415558
3.312,-0.000154194871748895
3.313,-0.000158924871748894
3.314,-0.000163728205082224
3.315,-0.000168528205082229
3.316,-0.000173394871748889
3.317,-0.000178334871748894
3.318,-0.000183271538415561
3.319,-0.000188348205082227
3.32,-0.000193351538415562
3.321,-0.00019849487174889
3.322,-0.000203638205082225
3.323,-0.000208851538415559
3.324,-0.000214061538415556
3.325,-0.00021934487174889
3.326,-0.000224624871748893
3.327,-0.000229974871748889
3.328,-0.000235321538415561
3.329,-0.000240741538415557
3.33,-0.000246158205082228
3.331,-0.000251644871748892
3.332,-0.000257131538415557
3.333,-0.000262618205082228
3.334,-0.000268171538415561
3.335,-0.000273728205082225
3.336,-0.000279281538415558
3.337,-0.00028490487174889
3.338,-0.000290528205082223
3.339,-0.000296151538415562
3.34,-0.000301844871748895
3.341,-0.000307534871748889
3.342,-0.000313228205082228
3.343,-0.000318918205082222
3.344,-0.000324681538415561
3.345,-0.000330441538415562
3.346,-0.000336271538415556
3.347,-0.000342098205082225
3.348,-0.000347928205082226
3.349,-0.000353758205082227
3.35,-0.000359654871748889
3.351,-0.000365554871748889
3.352,-0.000371521538415558
3.353,-0.000377418205082228
3.354,-0.00038331487174889
3.355,-0.000389281538415559
3.356,-0.000395248205082228
3.357,-0.00040121487174889
3.358,-0.000407181538415559
3.359,-0.000413148205082228
3.36,-0.000419111538415558
3.361,-0.000425078205082227
3.362,-0.000431044871748889
3.363,-0.000436941538415559
3.364,-0.000442911538415559
3.365,-0.00044887487174889
3.366,-0.00045477487174889
3.367,-0.000460671538415559
3.368,-0.000466568205082228
3.369,-0.000472468205082229
3.37,-0.000478364871748891
3.371,-0.000484194871748892
3.372,-0.000490091538415561
3.373,-0.000495921538415562
3.374,-0.000501751538415555
3.375,-0.000507578205082225
3.376,-0.000513408205082226
3.377,-0.000519238205082226
3.378,-0.000525068205082227
3.379,-0.000530894871748889
3.38,-0.00053672487174889
3.381,-0.000542554871748891
3.382,-0.000548314871748892
3.383,-0.000554074871748892
3.384,-0.000559904871748893
3.385,-0.000565664871748894
3.386,-0.000571424871748895
3.387,-0.000577254871748896
3.388,-0.000583014871748889
3.389,-0.000588778205082229
3.39,-0.000594538205082223
3.391,-0.000600228205082224
3.392,-0.000605988205082224
3.393,-0.000611681538415557
3.394,-0.000617371538415558
3.395,-0.00062299487174889
3.396,-0.000628621538415561
3.397,-0.000634244871748894
3.398,-0.000639798205082227
3.399,-0.000645421538415559
3.4,-0.000650978205082223
3.401,-0.000656461538415556
3.402,-0.000661948205082228
3.403,-0.000667434871748892
3.404,-0.000672854871748894
3.405,-0.000678271538415559
3.406,-0.000683621538415562
3.407,-0.000688968205082227
3.408,-0.000694318205082223
3.409,-0.000699598205082226
3.41,-0.00070481153841556
3.411,-0.000710091538415556
3.412,-0.000715234871748891
3.413,-0.000720378205082226
3.414,-0.000725451538415561
3.415,-0.000730528205082227
3.416,-0.000735534871748894
3.417,-0.00074054153841556
3.418,-0.000745478205082227
3.419,-0.000750414871748894
3.42,-0.000755284871748892
3.421,-0.00076008487174889
3.422,-0.000764818205082227
3.423,-0.000769548205082226
3.424,-0.000774211538415556
3.425,-0.000778808205082225
3.426,-0.000783334871748894
3.427,-0.000787858205082224
3.428,-0.000792318205082224
3.429,-0.000796704871748893
3.43,-0.000801094871748894
3.431,-0.000805414871748894
3.432,-0.000809668205082227
3.433,-0.000813851538415559
3.434,-0.000817964871748892
3.435,-0.000822081538415555
3.436,-0.000826058205082227
3.437,-0.000830034871748891
3.438,-0.000833944871748894
3.439,-0.000837851538415558
3.44,-0.000841624871748892
3.441,-0.000845394871748896
3.442,-0.000849168205082223
3.443,-0.000852804871748889
3.444,-0.000856438205082224
3.445,-0.00086000487174889
3.446,-0.000863571538415556
3.447,-0.000867068205082223
3.448,-0.00087049487174889
3.449,-0.000873924871748895
3.45,-0.000877354871748893
3.451,-0.000880648205082222
3.452,-0.000884008205082227
3.453,-0.000887231538415557
3.454,-0.000890451538415556
3.455,-0.000893538205082224
3.456,-0.000896694871748893
3.457,-0.000899711538415562
3.458,-0.000902728205082223
3.459,-0.000905678205082223
3.46,-0.000908558205082224
3.461,-0.000911438205082224
3.462,-0.000914248205082225
3.463,-0.000916994871748896
3.464,-0.000919734871748889
3.465,-0.00092234153841556
3.466,-0.000924948205082224
3.467,-0.000927484871748895
3.468,-0.00092995487174889
3.469,-0.000932354871748893
3.47,-0.000934684871748889
3.471,-0.000937018205082223
3.472,-0.000939281538415558
3.473,-0.000941474871748892
3.474,-0.000943601538415558
3.475,-0.000945728205082224
3.476,-0.000947784871748891
3.477,-0.000949771538415557
3.478,-0.000951761538415562
3.479,-0.00095368153841556
3.48,-0.000955534871748889
3.481,-0.000957384871748894
3.482,-0.000959168205082224
3.483,-0.000960951538415561
3.484,-0.000962664871748891
3.485,-0.000964381538415559
3.486,-0.000966094871748896
3.487,-0.000967741538415557
3.488,-0.000969318205082225
3.489,-0.000970894871748894
3.49,-0.000972404871748894
3.491,-0.000973844871748894
3.492,-0.000975351538415556
3.493,-0.000976791538415556
3.494,-0.000978164871748895
3.495,-0.000979534871748895
3.496,-0.000980908205082227
3.497,-0.000982141538415559
3.498,-0.000983444871748891
3.499,-0.000984611538415562
3.5,-0.000985778205082225
3.501,-0.000986941538415557
3.502,-0.00098797153841556
3.503,-0.000988998205082224
3.504,-0.000989961538415558
3.505,-0.00099092153841556
3.506,-0.000991811538415556
3.507,-0.00099263487174889
3.508,-0.000993458205082224
3.509,-0.000994211538415559
3.51,-0.000994968205082224
3.511,-0.000995651538415559
3.512,-0.000996338205082225
3.513,-0.000996954871748891
3.514,-0.000997571538415557
3.515,-0.000998191538415561
3.516,-0.000998738205082227
3.517,-0.000999288205082225
3.518,-0.000999834871748891
3.519,-0.0010003848717489
3.52,-0.00100086487174889
3.521,-0.00100141153841556
3.522,-0.00100189153841556
3.523,-0.00100237153841556
3.524,-0.00100285487174889
3.525,-0.00100333487174889
3.526,-0.00100381487174889
3.527,-0.00100429487174889
3.528,-0.00100470487174889
3.529,-0.00100518487174889
3.53,-0.00100566487174889
3.531,-0.00100614487174889
3.532,-0.00100662487174889
3.533,-0.00100703487174889
3.534,-0.00100751487174889
3.535,-0.00100792820508223
3.536,-0.00100833820508222
3.537,-0.00100875153841556
3.538,-0.00100916153841556
3.539,-0.00100957487174889
3.54,-0.00100998487174889
3.541,-0.00101032820508223
3.542,-0.00101067153841556
3.543,-0.00101101487174889
3.544,-0.00101128820508222
3.545,-0.00101163153841556
3.546,-0.00101183820508223
3.547,-0.00101211153841556
3.548,-0.00101231820508223
3.549,-0.00101252153841556
3.55,-0.00101272820508222
3.551,-0.00101293487174889
3.552,-0.00101307153841556
3.553,-0.00101327820508222
3.554,-0.00101341487174889
3.555,-0.00101355153841556
3.556,-0.00101368820508223
3.557,-0.0010138248717489
3.558,-0.00101396153841556
3.559,-0.00101416820508222
3.56,-0.00101430487174889
3.561,-0.00101444153841556
3.562,-0.00101458153841556
3.563,-0.00101478487174889
3.564,-0.00101499153841556
3.565,-0.0010152648717489
3.566,-0.00101554153841556
3.567,-0.00101588153841556
3.568,-0.00101622487174889
3.569,-0.00101656820508223
3.57,-0.00101691153841556
3.571,-0.00101732153841556
3.572,-0.00101773487174889
3.573,-0.00101821487174889
3.574,-0.00101869487174889
3.575,-0.00101924153841556
3.576,-0.00101972153841556
3.577,-0.00102034153841556
3.578,-0.00102095820508223
3.579,-0.00102157487174889
3.58,-0.00102226153841556
3.581,-0.00102294487174889
3.582,-0.00102370153841556
3.583,-0.00102445487174889
3.584,-0.00102527820508223
3.585,-0.00102610153841556
3.586,-0.00102692487174889
3.587,-0.00102781487174889
3.588,-0.00102870820508223
3.589,-0.00102959820508222
3.59,-0.00103048820508222
3.591,-0.00103144820508223
3.592,-0.00103241153841556
3.593,-0.00103337153841556
3.594,-0.00103433153841556
3.595,-0.00103529153841556
3.596,-0.00103631820508223
3.597,-0.00103727820508223
3.598,-0.00103823820508222
3.599,-0.00103919820508223
3.6,-0.00104016153841556
3.601,-0.00104112153841556
3.602,-0.00104208153841556
3.603,-0.00104304153841556
3.604,-0.00104400153841556
3.605,-0.00104489153841556
3.606,-0.00104578487174889
3.607,-0.0010466748717489
3.608,-0.00104756487174889
3.609,-0.00104845820508222
3.61,-0.00104934820508223
3.611,-0.00105024153841556
3.612,-0.0010510648717489
3.613,-0.00105195487174889
3.614,-0.00105284820508223
3.615,-0.00105366820508223
3.616,-0.00105449153841556
3.617,-0.00105531487174889
3.618,-0.00105613820508222
3.619,-0.00105696153841556
3.62,-0.00105771487174889
3.621,-0.00105847153841556
3.622,-0.00105922487174889
3.623,-0.00105997820508223
3.624,-0.00106059487174889
3.625,-0.00106128153841556
3.626,-0.00106183153841556
3.627,-0.00106237820508222
3.628,-0.00106285820508223
3.629,-0.00106327153841556
3.63,-0.00106361487174889
3.631,-0.00106388820508222
3.632,-0.00106409487174889
3.633,-0.00106416153841556
3.634,-0.00106416153841556
3.635,-0.00106402487174889
3.636,-0.00106381820508222
3.637,-0.00106340820508222
3.638,-0.00106285820508223
3.639,-0.00106217153841556
3.64,-0.00106128153841556
3.641,-0.00106025153841556
3.642,-0.00105895153841556
3.643,-0.00105744153841556
3.644,-0.00105565820508223
3.645,-0.00105360153841556
3.646,-0.00105126820508223
3.647,-0.00104866487174889
3.648,-0.00104571487174889
3.649,-0.00104242153841556
3.65,-0.00103871820508223
3.651,-0.0010346748717489
3.652,-0.00103014820508223
3.653,-0.00102520820508223
3.654,-0.00101986153841556
3.655,-0.00101403153841556
3.656,-0.00100772153841556
3.657,-0.00100086487174889
3.658,-0.000993458205082224
3.659,-0.000985501538415557
3.66,-0.000976998205082224
3.661,-0.000967878205082225
3.662,-0.00095814153841556
3.663,-0.000947784871748891
3.664,-0.000936744871748894
3.665,-0.000925084871748892
3.666,-0.000912741538415556
3.667,-0.000899778205082223
3.668,-0.000886064871748894
3.669,-0.00087173153841556
3.67,-0.000856711538415561
3.671,-0.000841008205082226
3.672,-0.000824548205082227
3.673,-0.000807474871748892
3.674,-0.000789641538415561
3.675,-0.000771194871748894
3.676,-0.000751991538415555
3.677,-0.000732174871748889
3.678,-0.000711738205082225
3.679,-0.000690614871748895
3.68,-0.000668874871748892
3.681,-0.000646588205082223
3.682,-0.000623681538415556
3.683,-0.000600228205082224
3.684,-0.000576294871748893
3.685,-0.00055174487174889
3.686,-0.000526781538415557
3.687,-0.000501338205082226
3.688,-0.000475414871748891
3.689,-0.000449151538415557
3.69,-0.000422474871748895
3.691,-0.000395454871748889
3.692,-0.00036809153841556
3.693,-0.000340384871748895
3.694,-0.000312474871748894
3.695,-0.000284288205082224
3.696,-0.000255898205082225
3.697,-0.000227298205082226
3.698,-0.00019856487174889
3.699,-0.000169624871748893
3.7,-0.000140614871748889
3.701,-0.000111538205082224
3.702,-8.23248717488899e-05
3.703,-5.3108205082225e-05
3.704,-2.38282050822229e-05
3.705,5.38846158444209e-06
3.706,3.46717949177755e-05
3.707,6.3955128251109e-05
3.708,9.32351282511111e-05
3.709,0.000122451794917776
3.71,0.00015159512825111
3.711,0.000180675128251107
3.712,0.000209681794917772
3.713,0.000238621794917776
3.714,0.000267425128251105
3.715,0.000296158461584441
3.716,0.00032475846158444
3.717,0.000353218461584439
3.718,0.000381538461584438
3.719,0.000409725128251108
3.72,0.00043770512825111
3.721,0.000465481794917774
3.722,0.000493118461584439
3.723,0.000520548461584444
3.724,0.000547775128251111
3.725,0.00057472512825111
3.726,0.000601538461584441
3.727,0.000628011794917774
3.728,0.000654345128251107
3.729,0.00068040512825111
3.73,0.000706191794917778
3.731,0.000731701794917777
3.732,0.000756938461584439
3.733,0.000781901794917772
3.734,0.000806588461584444
3.735,0.00083100512825111
3.736,0.000855075128251109
3.737,0.000878871794917771
3.738,0.000902391794917772
3.739,0.000925641794917775
3.74,0.000948548461584442
3.741,0.00097117846158444
3.742,0.00099346512825111
3.743,0.00101541179491777
3.744,0.00103701179491778
3.745,0.00105834179491778
3.746,0.00107932179491777
3.747,0.00109997179491778
3.748,0.00112027179491777
3.749,0.00114015512825111
3.75,0.00115977179491777
3.751,0.00117890512825111
3.752,0.00119776512825111
3.753,0.00121614512825111
3.754,0.00123424512825111
3.755,0.00125186512825111
3.756,0.00126914512825111
3.757,0.00128602179491778
3.758,0.00130247846158444
3.759,0.00131859846158444
3.76,0.0013342351282511
3.761,0.00134953179491777
3.762,0.00136433512825111
3.763,0.0013787351282511
3.764,0.00139273179491777
3.765,0.00140630846158444
3.766,0.00141940846158444
3.767,0.00143209179491778
3.768,0.00144436846158444
3.769,0.00145622846158444
3.77,0.00146762179491778
3.771,0.00147852179491777
3.772,0.00148908179491777
3.773,0.00149916179491778
3.774,0.00150883846158444
3.775,0.00151802179491778
3.776,0.00152679846158444
3.777,0.00153516179491777
3.778,0.00154311846158444
3.779,0.00155059846158444
3.78,0.00155765846158444
3.781,0.00156431512825111
3.782,0.00157055512825111
3.783,0.00157637846158444
3.784,0.00158179846158444
3.785,0.00158681179491778
3.786,0.00159139846158444
3.787,0.00159558846158444
3.788,0.0015993551282511
3.789,0.00160271512825111
3.79,0.00160566846158444
3.791,0.00160827179491777
3.792,0.00161039512825111
3.793,0.00161217512825111
3.794,0.00161362512825111
3.795,0.00161465179491777
3.796,0.00161526846158444
3.797,0.00161554512825111
3.798,0.00161540846158444
3.799,0.00161499179491778
3.8,0.00161417179491777
3.801,0.00161300846158444
3.802,0.00161156846158444
3.803,0.00160971179491777
3.804,0.00160758846158444
3.805,0.00160511512825111
3.806,0.00160230846158444
3.807,0.00159929179491777
3.808,0.00159585512825111
3.809,0.00159222846158444
3.81,0.00158831512825111
3.811,0.00158406846158444
3.812,0.00157961179491778
3.813,0.00157487512825111
3.814,0.00156987179491777
3.815,0.00156459179491778
3.816,0.00155909846158444
3.817,0.00155341179491777
3.818,0.00154743846158444
3.819,0.00154127512825111
3.82,0.00153489512825111
3.821,0.00152831512825111
3.822,0.00152145512825111
3.823,0.00151445846158444
3.824,0.00150732179491777
3.825,0.00149991846158444
3.826,0.00149237846158444
3.827,0.0014846251282511
3.828,0.00147666512825111
3.829,0.00146864512825111
3.83,0.00146042179491778
3.831,0.00145212179491777
3.832,0.00144361179491778
3.833,0.00143497179491778
3.834,0.00142619179491778
3.835,0.00141734846158444
3.836,0.00140836846158444
3.837,0.00139924846158444
3.838,0.00138998846158444
3.839,0.00138065512825111
3.84,0.00137126846158444
3.841,0.00136179846158444
3.842,0.00135219846158444
3.843,0.00134253179491778
3.844,0.0013327951282511
3.845,0.00132298179491778
3.846,0.00131317846158444
3.847,0.00130323846158444
3.848,0.00129329512825111
3.849,0.00128334512825111
3.85,0.00127326512825111
3.851,0.00126318512825111
3.852,0.00125303846158444
3.853,0.00124288512825111
3.854,0.00123274179491777
3.855,0.00122252179491777
3.856,0.00121222846158444
3.857,0.00120201179491777
3.858,0.00119172846158444
3.859,0.00118137179491778
3.86,0.00117108846158444
3.861,0.00116073179491778
3.862,0.00115037179491778
3.863,0.00114001512825111
3.864,0.00112959512825111
3.865,0.00111917179491778
3.866,0.00110875179491778
3.867,0.00109831846158444
3.868,0.00108783512825111
3.869,0.00107733846158444
3.87,0.00106684179491778
3.871,0.00105635179491778
3.872,0.00104579179491778
3.873,0.00103529846158444
3.874,0.00102466846158444
3.875,0.00101410846158444
3.876,0.00100347846158444
3.877,0.000992848461584444
3.878,0.000982151794917776
3.879,0.000971451794917777
3.88,0.000960755128251109
3.881,0.000949988461584442
3.882,0.000939218461584443
3.883,0.000928385128251107
3.884,0.00091754846158444
3.885,0.000906645128251104
3.886,0.000895671794917776
3.887,0.00088476846158444
3.888,0.000873728461584443
3.889,0.000862685128251108
3.89,0.000851578461584442
3.891,0.000840468461584439
3.892,0.000829221794917773
3.893,0.000817975128251108
3.894,0.000806728461584443
3.895,0.000795341794917771
3.896,0.000783958461584438
3.897,0.000772575128251104
3.898,0.00076105512825111
3.899,0.000749531794917777
3.9,0.000737941794917775
3.901,0.000726351794917774
3.902,0.00071476512825111
3.903,0.000703105128251109
3.904,0.000691445128251107
3.905,0.000679718461584445
3.906,0.000667991794917775
3.907,0.000656265128251105
3.908,0.000644608461584442
3.909,0.000632881794917772
3.91,0.000621155128251109
3.911,0.000609428461584439
3.912,0.000597768461584438
3.913,0.000586108461584443
3.914,0.000574451794917773
3.915,0.000562791794917772
3.916,0.000551271794917777
3.917,0.000539751794917775
3.918,0.000528298461584442
3.919,0.000516845128251109
3.92,0.000505461794917776
3.921,0.000494145128251111
3.922,0.000482898461584438
3.923,0.000471651794917773
3.924,0.000460541794917776
3.925,0.000449431794917773
3.926,0.000438391794917776
3.927,0.00042748846158444
3.928,0.000416585128251111
3.929,0.000405818461584444
3.93,0.000395188461584445
3.931,0.000384628461584438
3.932,0.000374201794917776
3.933,0.000363848461584438
3.934,0.000353628461584444
3.935,0.000343618461584442
3.936,0.000333671794917778
3.937,0.000323865128251106
3.938,0.000314265128251109
3.939,0.000304801794917773
3.94,0.000295475128251106
3.941,0.000286285128251107
3.942,0.000277301794917776
3.943,0.000268455128251107
3.944,0.000259815128251106
3.945,0.000251378461584441
3.946,0.000243081794917776
3.947,0.000234988461584441
3.948,0.000227031794917774
3.949,0.000219285128251107
3.95,0.000211741794917777
3.951,0.000204335128251107
3.952,0.000197131794917775
3.953,0.000190068461584442
3.954,0.000183141794917778
3.955,0.000176355128251106
3.956,0.000169771794917778
3.957,0.000163391794917773
3.958,0.000157151794917774
3.959,0.000151048461584444
3.96,0.000145081794917775
3.961,0.000139388461584442
3.962,0.00013376512825111
3.963,0.000128348461584438
3.964,0.000123138461584442
3.965,0.000118061794917776
3.966,0.000113191794917777
3.967,0.000108461794917772
3.968,0.00010386512825111
3.969,9.94784615844411e-05
3.97,9.52251282511089e-05
3.971,9.11784615844378e-05
3.972,8.72017949177736e-05
3.973,8.34284615844392e-05
3.974,7.97951282511044e-05
3.975,7.62984615844379e-05
3.976,7.29384615844397e-05
3.977,6.97151282511099e-05
3.978,6.66284615844413e-05
3.979,6.3678461584441e-05
3.98,6.08684615844404e-05
3.981,5.81251282511083e-05
3.982,5.55184615844445e-05
3.983,5.3048461584442e-05
3.984,5.06484615844392e-05
3.985,4.83851282511048e-05
3.986,4.61917949177773e-05
3.987,4.4135128251111e-05
3.988,4.21451282511062e-05
3.989,4.02951282511081e-05
3.99,3.85117949177714e-05
3.991,3.68651282511101e-05
3.992,3.52884615844416e-05
3.993,3.38484615844414e-05
3.994,3.24751282511097e-05
3.995,3.12417949177776e-05
3.996,3.00751282511069e-05
3.997,2.9048461584443e-05
3.998,2.80884615844405e-05
3.999,2.71951282511065e-05
4,2.64417949177721e-05
4.001,2.58251282511061e-05
4.002,2.52051282511087e-05
4.003,2.4725128251111e-05
4.004,2.4315128251106e-05
4.005,2.39717949177766e-05
4.006,2.37651282511085e-05
4.007,2.35617949177717e-05
4.008,2.34917949177719e-05
4.009,2.34917949177719e-05
4.01,2.35617949177717e-05
4.011,2.36284615844402e-05
4.012,2.37651282511085e-05
4.013,2.39717949177766e-05
4.014,2.42451282511062e-05
4.015,2.45217949177742e-05
4.016,2.48651282511106e-05
4.017,2.52051282511087e-05
4.018,2.56184615844379e-05
4.019,2.60284615844429e-05
4.02,2.64417949177721e-05
4.021,2.68517949177771e-05
4.022,2.73317949177748e-05
4.023,2.78117949177725e-05
4.024,2.82251282511088e-05
4.025,2.87051282511065e-05
4.026,2.91851282511113e-05
4.027,2.9665128251109e-05
4.028,3.00751282511069e-05
4.029,3.05551282511047e-05
4.03,3.09684615844409e-05
4.031,3.14484615844386e-05
4.032,3.18584615844436e-05
4.033,3.22717949177728e-05
4.034,3.2611794917778e-05
4.035,3.30251282511072e-05
4.036,3.33684615844436e-05
4.037,3.3711794917773e-05
4.038,3.39851282511097e-05
4.039,3.42584615844393e-05
4.04,3.44651282511074e-05
4.041,3.46717949177755e-05
4.042,3.48084615844439e-05
4.043,3.49451282511051e-05
4.044,3.50117949177736e-05
4.045,3.50117949177736e-05
4.046,3.49451282511051e-05
4.047,3.48751282511053e-05
4.048,3.4738461584444e-05
4.049,3.45317949177759e-05
4.05,3.42584615844393e-05
4.051,3.39851282511097e-05
4.052,3.35717949177734e-05
4.053,3.31617949177755e-05
4.054,3.26817949177778e-05
4.055,3.21317949177732e-05
4.056,3.15151282511072e-05
4.057,3.08317949177726e-05
4.058,3.00751282511069e-05
4.059,2.92517949177728e-05
4.06,2.83617949177771e-05
4.061,2.74684615844431e-05
4.062,2.65084615844406e-05
4.063,2.54817949177767e-05
4.064,2.43851282511059e-05
4.065,2.32184615844423e-05
4.066,2.19851282511102e-05
4.067,2.06817949177712e-05
4.068,1.93084615844395e-05
4.069,1.78684615844393e-05
4.07,1.63584615844393e-05
4.071,1.47817949177778e-05
4.072,1.31384615844407e-05
4.073,1.14217949177726e-05
4.074,9.63846158444294e-06
4.075,7.78846158443775e-06
4.076,5.86846158443981e-06
4.077,3.87846158444206e-06
4.078,1.82179491777579e-06
4.079,-3.04871748890285e-07
4.08,-2.49820508222487e-06
4.081,-4.83153841555908e-06
4.082,-7.09487174889348e-06
4.083,-9.56153841555765e-06
4.084,-1.210153841556e-05
4.085,-1.47048717488925e-05
4.086,-1.73815384155561e-05
4.087,-2.01248717488953e-05
4.088,-2.30048717488887e-05
4.089,-2.58848717488891e-05
4.09,-2.89015384155579e-05
4.091,-3.19182050822266e-05
4.092,-3.5074871748895e-05
4.093,-3.82982050822249e-05
4.094,-4.15882050822232e-05
4.095,-4.49482050822284e-05
4.096,-4.83782050822264e-05
4.097,-5.19448717488927e-05
4.098,-5.5511538415559e-05
4.099,-5.91448717488938e-05
4.1,-6.28482050822285e-05
4.101,-6.66182050822245e-05
4.102,-7.04615384155588e-05
4.103,-7.43015384155617e-05
4.104,-7.82782050822259e-05
4.105,-8.22548717488901e-05
4.106,-8.6371538415561e-05
4.107,-9.04848717488935e-05
4.108,-9.46682050822259e-05
4.109,-9.8921538415558e-05
4.11,-0.000103241538415559
4.111,-0.000107628205082228
4.112,-0.000112018205082228
4.113,-0.00011654487174889
4.114,-0.000121071538415559
4.115,-0.000125664871748889
4.116,-0.000130328205082226
4.117,-0.000134991538415556
4.118,-0.000139794871748893
4.119,-0.000144594871748891
4.12,-0.00014939487174889
4.121,-0.000154331538415557
4.122,-0.000159338205082223
4.123,-0.00016434487174889
4.124,-0.000169418205082225
4.125,-0.000174561538415559
4.126,-0.000179704871748894
4.127,-0.000184918205082229
4.128,-0.000190128205082225
4.129,-0.00019534153841556
4.13,-0.000200621538415556
4.131,-0.000205971538415559
4.132,-0.000211321538415562
4.133,-0.000216738205082226
4.134,-0.000222224871748891
4.135,-0.000227711538415562
4.136,-0.000233198205082226
4.137,-0.000238751538415559
4.138,-0.000244304871748892
4.139,-0.000249861538415556
4.14,-0.000255484871748895
4.141,-0.000261178205082228
4.142,-0.000266868205082229
4.143,-0.000272561538415561
4.144,-0.000278251538415562
4.145,-0.000284014871748894
4.146,-0.000289841538415557
4.147,-0.000295604871748889
4.148,-0.000301431538415558
4.149,-0.000307261538415559
4.15,-0.00031309153841556
4.151,-0.000318988205082229
4.152,-0.000324888205082222
4.153,-0.000330784871748892
4.154,-0.000336681538415561
4.155,-0.000342578205082223
4.156,-0.000348544871748892
4.157,-0.000354444871748893
4.158,-0.000360341538415562
4.159,-0.000366308205082224
4.16,-0.000372204871748893
4.161,-0.000378104871748893
4.162,-0.000384001538415556
4.163,-0.000389898205082225
4.164,-0.000395794871748894
4.165,-0.000401761538415556
4.166,-0.000407661538415556
4.167,-0.000413488205082226
4.168,-0.000419388205082226
4.169,-0.000425214871748889
4.17,-0.000431114871748889
4.171,-0.000436941538415559
4.172,-0.000442704871748891
4.173,-0.000448534871748891
4.174,-0.000454294871748892
4.175,-0.000460121538415562
4.176,-0.000465884871748894
4.177,-0.000471644871748895
4.178,-0.000477404871748889
4.179,-0.00048316487174889
4.18,-0.000488858205082229
4.181,-0.000494548205082223
4.182,-0.000500241538415555
4.183,-0.000505931538415556
4.184,-0.000511624871748889
4.185,-0.000517248205082228
4.186,-0.000522871538415561
4.187,-0.000528494871748894
4.188,-0.000534051538415558
4.189,-0.00053967487174889
4.19,-0.000545228205082223
4.191,-0.000550784871748894
4.192,-0.000556338205082227
4.193,-0.000561824871748891
4.194,-0.000567378205082224
4.195,-0.000572864871748895
4.196,-0.000578351538415559
4.197,-0.000583768205082224
4.198,-0.000589258205082226
4.199,-0.000594674871748891
4.2,-0.000600091538415562
4.201,-0.000605441538415558
4.202,-0.000610788205082223
4.203,-0.000616138205082226
4.204,-0.00062142153841556
4.205,-0.000626701538415556
4.206,-0.00063191153841556
4.207,-0.000637054871748894
4.208,-0.000642198205082222
4.209,-0.000647274871748889
4.21,-0.000652278205082224
4.211,-0.000657288205082229
4.212,-0.000662154871748896
4.213,-0.000667024871748894
4.214,-0.000671824871748892
4.215,-0.000676624871748891
4.216,-0.000681288205082228
4.217,-0.000685951538415558
4.218,-0.000690614871748895
4.219,-0.000695141538415557
4.22,-0.000699668205082225
4.221,-0.000704194871748894
4.222,-0.000708581538415556
4.223,-0.000713041538415557
4.224,-0.000717361538415557
4.225,-0.000721748205082226
4.226,-0.000726071538415559
4.227,-0.000730391538415559
4.228,-0.00073471153841556
4.229,-0.000739031538415561
4.23,-0.000743351538415561
4.231,-0.000747604871748893
4.232,-0.000751854871748894
4.233,-0.000756038205082226
4.234,-0.000760221538415559
4.235,-0.000764404871748891
4.236,-0.000768451538415562
4.237,-0.000772568205082226
4.238,-0.00077654487174889
4.239,-0.000780521538415562
4.24,-0.000784498205082226
4.241,-0.000788408205082229
4.242,-0.000792248205082224
4.243,-0.000796021538415559
4.244,-0.000799791538415562
4.245,-0.000803494871748889
4.246,-0.000807128205082224
4.247,-0.000810694871748891
4.248,-0.000814194871748895
4.249,-0.000817691538415562
4.25,-0.00082105153841556
4.251,-0.000824411538415558
4.252,-0.000827771538415557
4.253,-0.000831064871748893
4.254,-0.000834288205082223
4.255,-0.00083744153841556
4.256,-0.000840528205082229
4.257,-0.00084361487174889
4.258,-0.000846701538415559
4.259,-0.000849648205082228
4.26,-0.000852598205082228
4.261,-0.000855548205082228
4.262,-0.000858358205082229
4.263,-0.000861171538415561
4.264,-0.000863911538415562
4.265,-0.000866654871748894
4.266,-0.000869261538415557
4.267,-0.000871938205082228
4.268,-0.000874474871748892
4.269,-0.000877011538415556
4.27,-0.000879481538415559
4.271,-0.000881948205082223
4.272,-0.000884281538415557
4.273,-0.00088668153841556
4.274,-0.000888944871748894
4.275,-0.000891208205082229
4.276,-0.000893401538415556
4.277,-0.000895594871748891
4.278,-0.000897791538415557
4.279,-0.000899918205082223
